-1690.2979600784730	70.1171720167604	0.2682924590459	-868.9552150911350
-1746.1039717321362	82.4303010022999	12.4964490528642	-881.9713332618871
-1926.7686518154921	111.1257923991433	56.0180492422639	-915.4953021401527
-2132.6807537890380	142.7091649424034	113.4530917946210	-958.8060449130588
-2279.8139905707820	156.6395231055645	166.2036378626392	-999.9460577900478
-2371.0888947354430	160.8853889567123	202.0769360157175	-1029.3984328983347
-1680.2731848088722	68.9971886869894	0.0137686745845	-868.5968361612363
-1688.0745158284326	72.4267688306294	1.7486216722276	-871.1023415449072
-1819.0413616944982	91.5416230608968	25.1994282244954	-892.3057070142872
-2012.3570933767670	123.4070567377873	76.4118166460772	-930.7144082444199
-2178.6567185707950	150.2347290795718	133.9790384744452	-974.6002882242547
-2310.1038944845072	158.4231565503068	181.3558675474962	-1012.2041120772495
-2414.9645465570147	162.2351124566927	211.3656772811028	-1037.3929187527800
-2479.7697639190870	165.1521045150881	230.1662123401418	-1053.9660756547541
-2483.4282974515318	167.1926220885065	240.8636857108695	-1064.2001347780388
-2451.9641222911027	168.4085927496663	239.0104221118000	-1064.7524553242272
-2372.2175326606666	168.2406149197358	210.3165042777663	-1044.9719840254763
-2215.4159325857077	161.1430598667931	158.3617876007303	-1006.7698129141106
-1996.9007726789440	134.0081493864238	99.4444488816796	-962.0220139052884
-1816.7679568252510	103.6887411700179	48.0546412533094	-921.4921500077427
-1750.2200186514874	85.6718403901864	16.6262646468001	-895.1212042714601
-1724.3219285395060	75.4574508020223	2.6286366735264	-879.3501710117067
-1680.2543020551566	69.6486436901860	0.0495672285041	-869.9796044802195
-1674.0847556692070	70.3390443729215	0.3670335253517	-869.0512024225238
-1774.1590230654504	83.4444622331216	13.7969987150429	-883.0865959032291
-2120.5371761962388	143.7953166717668	116.0301942861312	-960.6911731590238
-2269.7569572635834	156.9211908484925	168.2382545755213	-1001.5274884137498
-2392.4598446440514	161.0856248242408	203.3538822357514	-1030.5085814605452
-2466.3091142546073	164.3220501329958	224.9762088032018	-1049.3264257104904
-2478.8452957684153	166.6347940724842	238.4400055933005	-1061.7040707712258
-2462.8102973473430	168.1320390858696	241.5592004727364	-1066.0699207866098
-2414.6112817062470	168.5364447279506	222.8098062050111	-1053.8476650533278
-2273.9902346122544	165.2303892648684	176.1670441826634	-1020.0404548693245
-2056.9963165517230	144.2367010398747	117.9172894856083	-976.0770769211146
-1861.4787771080464	112.0667829593161	62.3956993097901	-932.9028407219458
-1771.4788522099077	89.9688470326480	24.1864471657809	-901.7372491046486
-1735.3219193603895	78.1655523974362	5.3776509019912	-883.4697584473798
-1682.4722388353630	70.8256686718069	0.2313137330191	-871.9465579922864
-1666.2122209325100	69.2729555693812	0.0409126330510	-868.2652077991019
-1738.6374162003299	77.1517845573168	6.1018831851343	-876.1452169591446
-1895.6125015750526	102.1041634206967	41.5027191046142	-904.6215897347438
-2059.2181872389533	135.0451272779855	97.3118778838966	-946.4598711085165
-2222.2774532172030	154.7079747567147	153.0722562160798	-989.5156967062588
-2365.2458626324965	159.8554920977941	193.8609711958136	-1022.5203898573385
-2450.2662480194860	163.3952216381099	218.8082359800620	-1043.8201360488100
-2470.8771670910320	165.9636695341670	234.9128645554619	-1058.3449075633177
-2466.7623003437875	167.7193722390380	241.8758799881792	-1065.7414395500946
-2446.9169195791387	168.5380182907603	232.0824184515975	-1060.1749611109449
-2329.7384178326630	167.2626456335360	192.8621522023859	-1032.2634973840113
-2118.9341090839040	153.3787075732598	136.8740006535054	-990.5971277471933
-1913.3253113419190	121.8960430498174	78.8669680198393	-946.0169131775991
-1799.7852802020643	95.5447668486556	33.9610259486468	-909.9343311708368
-1749.1676985225315	81.4472176369688	9.7458612615897	-888.5429249457030
-1687.5745162456649	72.7871147140401	0.8516908707250	-875.1715749706714
-1662.8408626128270	69.1380225584534	0.0094413768579	-868.6696134411828
-1714.5426290682110	72.9444709950055	2.0708086575042	-871.6172899743663
-1843.8914589752503	92.6513782324050	26.8567832537631	-893.5979954717153
-1997.8948709839426	124.7461586888026	78.7269209297801	-932.4472942885510
-2169.0194331430707	150.9145082133422	136.2984700558746	-976.3367147847074
-2332.6857009751434	158.6072633990363	182.8527191701792	-1013.3681551656907
-2432.3205509567920	162.3928621283605	212.1788158629913	-1038.0939409844805
-2461.1812664486490	165.2508455813939	230.8153069991239	-1054.5687502108512
-2467.3433384112520	167.2795614337398	241.0171080848107	-1064.3547373240874
-2468.9621411516830	168.4502921641221	238.2216737534611	-1064.1993479966340
-2381.2930561653440	168.2000956773872	208.2150111454738	-1043.4507421792440
-2181.3675739011255	160.3755546063846	155.7673759183140	-1004.8303967512126
-1970.6974113818897	132.4302592790436	96.7257257373006	-959.8296475207384
-1836.3194747351972	102.4700167739411	46.0212047125345	-919.7635912613381
-1765.5571419664790	84.9114161624212	15.4244560509272	-893.9850919228902
-1694.9234479574500	74.9181121490135	2.2387864874347	-878.4516666473945
-1662.0222165611049	69.3362914724697	0.0452399307775	-869.4331847945672
-1698.6614464117818	70.3248823076346	0.4362702889765	-868.9560018725397
-1797.8210804249145	84.2713694895946	14.9492400824118	-883.9426140716806
-1937.8370926185955	114.0707151974100	60.8048273092302	-919.0110348476212
-2111.7378129646550	144.8649459916288	118.6088703404510	-962.7584413002062
-2293.9288489733750	157.2008916379084	170.1402986216901	-1003.0931834093551
-2410.6919301381026	161.2953020686271	204.3900733459083	-1031.3787616942836
-2448.3760056943897	164.4648509579719	225.7413537193958	-1050.0494778215264
-2463.4770945879330	166.7429765156479	238.8133333698908	-1062.0490744172420
-2480.7056404001282	168.2000956773872	241.1850859147413	-1065.8102829230170
-2424.4743733971563	168.5325108209265	221.0100437414698	-1052.5211516047896
-2241.0815287925634	164.7779899570930	173.6143319147029	-1018.1250355392735
-2030.7504690588078	142.8244284182105	115.2257102996958	-974.0908472646292
-1880.2250242501525	110.9090341221135	60.3166294475352	-931.3611425591877
-1786.5390284704001	89.2422544052904	22.8740957825298	-900.5783200953389
-1705.7586080740223	77.7497384249852	4.8465734537331	-882.7569344946068
-1663.9266209514880	70.5558026499513	0.1813531138126	-871.5877856716853
-1690.9627903655514	69.2438446574026	0.0531077448258	-868.1200466299111
-1761.5669800719000	77.8150412815858	6.9236763624759	-876.7911644925075
-1879.8831677297553	103.5687570057818	43.8193969511267	-906.3387401507783
-2050.7642210440895	136.4483519134941	99.9613642646508	-948.4449205928945
-2247.7160629887658	155.1277226361898	155.2103346836966	-991.1577094981324
-2384.4834547619166	160.0852322680035	195.2165955563301	-1023.6470608290506
-2433.3508412064125	163.5647730308500	219.8428535274092	-1044.7914176930688
-2456.6903181898970	166.1163051267034	235.5135721580472	-1058.8468740995970
-2485.9770758124682	167.8444704824055	241.9325282493267	-1065.7795984482286
-2458.5176180026070	168.6292849337202	230.9868253453762	-1059.5065903075445
-2298.0578777859064	167.1009620548441	190.6143177287957	-1030.6789196346901
-2092.6870814188815	152.1847667914351	134.1658990580915	-988.4673104843272
-1930.7265556724730	120.4416776229951	76.3803453898842	-944.0361909909476
-1813.5067479022440	94.6781271312388	32.3784151528377	-908.7022314908779
-1718.8164256592304	80.8917499651611	8.9398037123446	-887.6487478791174
-1668.1433758906574	72.3406162668009	0.6935478083548	-874.4201987290618
-1687.2582301209247	68.9790927146784	0.0118017210724	-868.3458528930965
-1735.2853340250651	73.3964769120785	2.4767878623948	-872.0519867005331
-1826.5622051432376	94.0479152259726	28.9004479528007	-895.1156968016263
-1989.6108495725214	126.3960392947244	81.5050460702236	-934.5188897274600
-2195.9159488577780	151.6568364687963	138.9200256967575	-978.4543369357987
-2353.0098382246300	158.8566731043664	184.5667224605945	-1014.8319619693710
-2415.7434601477935	162.5856235725431	213.2075325498024	-1038.9436649016934
-2446.9837959985490	165.4042679553351	231.4518131556288	-1055.1552957481500
-2486.3244398026986	167.3983654258687	241.1606956911916	-1064.6273570808598
-2481.5868355735342	168.5364447279506	237.3935863248809	-1063.6466340597430
-2350.1730978695273	168.1371531650010	205.9388525413099	-1041.7721440520459
-2154.3825452783760	159.5297645961958	152.9086056838758	-1002.7013662697512
-1986.3948805802918	130.8287657295186	93.9062945731037	-957.7222535279100
-1847.9359087867629	101.2977124807492	43.9134173290035	-918.1381008789658
-1734.6248310357130	84.3665700395787	14.3973129269258	-893.0385938928836
-1675.1842826824525	74.5884507403911	1.9453170234343	-877.8678748450130
-1686.5304573214598	69.2863308532632	0.0354051632172	-869.2471109923256
-1718.7900684821684	70.6045830970506	0.6054282910142	-869.1617452099019
-1779.0945028179292	85.5483157096286	16.5955801720119	-885.3320700326050
-1929.3205773020480	115.7737035481576	63.5400728631106	-921.0700417840530
-2139.6103310120500	145.9758813352443	121.2953354472322	-964.7997456550294
-2315.5023950937260	157.4711510504664	172.0895495521485	-1004.6643858747941
-2395.1931232444194	161.4935709826435	205.6933767430039	-1032.5046458845910
-2435.1985973356480	164.6320420064976	226.5603931618205	-1050.7170618435218
-2483.6143712537732	166.8826302150047	239.2806815243580	-1062.5058010227442
-2495.6391448544437	168.3094582926581	241.0190750383228	-1065.7906133878962
-2396.4842315297400	168.5557208723689	219.4341205876017	-1051.4715852107506
-2215.3990167855045	164.3212633515910	171.1517061175950	-1016.3067837127188
-2046.0498268663675	141.3370181723855	112.4212279821906	-971.8654360610765
-1890.4358733219950	109.5101367843314	57.8831145624059	-929.3469821628311
-1753.8411800672030	88.5502801597452	21.5078498730481	-899.5149850267153
-1684.1063838131886	77.1867963298316	4.2513733209817	-881.9253065497048
-1687.6024469855365	70.1458895380365	0.1408338714640	-870.8383763835877
-1708.6653719741548	69.0782271716866	0.0680565915175	-867.7636346535247
-1737.7212092544087	78.3889983164070	7.6502689898335	-877.2671672424277
-1868.3265290649567	104.9232011941911	45.7981521842661	-907.7934989683030
-2077.8338286678586	137.6151487368523	102.2922041764503	-950.1034557942695
-2269.5858323080333	155.4900354731125	157.1721741166322	-992.6628223255661
-2369.1805564380350	160.2960896844971	196.4058156497259	-1024.5070129045264
-2420.3374767705773	163.7520270051988	220.6099653971154	-1045.3449184113645
-2477.2504898608310	166.2626464680012	236.0470099505198	-1059.2898320305146
-2502.0856382948920	167.9742894142019	241.9431497982919	-1065.7575685688935
-2433.5561911530720	168.6827860692484	229.8727428761414	-1058.6340497295917
-2273.6885039435033	166.9223626759484	188.2968531008783	-1028.9625560000607
-2107.8279027733690	150.9821714141573	131.4054764992567	-986.4059432036809
-1940.1624250605614	118.9090274463925	73.7757055492050	-941.9842650871593
-1779.8985934136620	93.7355630082563	30.6526101413500	-907.2950729483453
-1696.9918962707395	80.4027653220612	8.0873260602148	-886.8560656137545
-1691.3034667138418	72.0207896257388	0.5440593414377	-873.7978546378439
-1705.4061300046596	68.8209496523082	0.0133752838821	-867.9288587485383
-1709.7621452524836	73.7827865818484	2.8210047270065	-872.3611917926300
-1813.7172119280350	95.2422493984996	30.5452144795912	-896.4791889761912
-2016.8043752675503	127.7465495761096	83.7772707673634	-936.1931605569316
-2218.9568422981310	152.2205653453547	141.0522033038382	-979.9692845307926
-2338.8296769654366	159.0313385762380	186.0970122929826	-1016.0168547650403
-2403.3662084777598	162.7595022630098	214.2488377390906	-1039.8287939821237
-2467.9975471493660	165.5671317061343	232.0501604139996	-1055.5447525435390
-2503.2898072349794	167.5384125159279	241.3809944845431	-1064.7296386634873
-2459.3496393382115	168.6178766033502	236.8459864671214	-1063.2040695195280
-2327.6314172305365	168.1143365042610	204.0867691143476	-1040.4137659566125
-2169.7680556497640	158.6536835019211	150.3374040529018	-1000.7312656320650
-1995.2331894914137	129.2312060870178	91.1954392427730	-955.6321687259874
-1813.4241358547370	100.2634883241043	42.0023252966792	-916.6801949358218
-1712.2047081237681	83.8303785121892	13.3442060165651	-892.2128668085178
-1697.2538944785467	74.1824715355005	1.5932323447743	-877.2553655213553
-1704.5929914227713	69.0483294783031	0.0180959723110	-868.8155613917781
-1691.5867080195794	70.8197678112707	0.7018090131055	-869.3427049330121
-1764.3266158493300	86.5463479216514	17.7741787164424	-886.4186151526707
-1955.8941192500733	117.0951029175642	65.5562002129794	-922.5932505837976
-2162.7409175325530	146.8197043919211	123.3806995607256	-966.3064320452727
-2301.6019346239486	157.6898762810083	173.6367551847404	-1005.7407028365973
-2382.9146126406920	161.6784646127778	206.6792138432519	-1033.2214037443878
-2456.2390990542290	164.7882181153557	227.2854122263685	-1051.2866915806164
-2500.8956314200910	167.0380195424580	239.6488952218169	-1062.7445891791092
-2474.9987214802170	168.4184275172266	240.8042837148051	-1065.5695278131400
-2375.3902286756306	168.5954533333127	217.8711793269133	-1050.2768576475210
-2230.7101763141363	163.8366060062177	168.6619363620205	-1014.4106405270862
-2054.7437613897040	139.8444938474290	109.7292554055757	-969.8638641671972
-1855.4972714778505	108.3299646770912	55.7977504489124	-927.8115782513114
-1731.4859666211562	87.9133806125379	20.2777171466013	-898.5271809729552
-1706.2377579495620	76.8189760230751	3.7403587985466	-881.2655903417575
-1705.5607325507083	69.9287378703043	0.1026749733299	-870.4516733231155
-1681.9671251734644	69.2092262755902	0.0885129080430	-867.8592285942111
-1722.6928976408121	79.2284940753572	8.4622273996147	-878.1904552209920
-1896.0900778877829	106.2768586011956	47.8638467626389	-909.3776833269219
-2102.3526909771790	138.8448880725966	104.7143107312096	-952.0735564319558
-2256.8222709682304	155.8212704445446	159.2488836346726	-994.3638437228017
-2357.6258847267490	160.4774427983096	197.7834698895776	-1025.7001669049462
-2441.3964678521716	163.9082031140570	221.4679505190790	-1045.9680492839873
-2494.4212072397720	166.4105613721086	236.5568443008476	-1059.6395563649600
-2481.9987156389607	168.0805049038535	242.0997192978524	-1065.9562308736122
-2413.5416523863855	168.7154374975488	228.7244354157967	-1057.8287789617514
-2288.4382949397914	166.6737397520232	185.9455568725534	-1027.2103938115110
-2116.0123963370797	149.6060907371152	128.6076818236925	-984.3009095550668
-1904.8654442865186	117.5030490759670	71.3980521438184	-940.0955963248725
-1757.5087615858030	93.0632582978318	29.3394719766941	-906.2112815631964
-1719.7593831729152	80.1195240163236	7.5755247563749	-886.3226278212818
-1709.0339790623161	71.7989172695777	0.4779697034323	-873.4453765684815
-1679.0599678826293	68.9928613892628	0.0165224095014	-868.0291733776538
-1695.7550759023516	74.6565073319086	3.5173062702782	-873.2022611143900
-1844.8902779686782	97.1450802260733	33.3638588623832	-898.6365435882262
-2045.8067114122762	129.8252260476620	87.4236091880332	-938.9858411533642
-2210.5103505266125	153.0730429974846	144.5581012437464	-982.7533105317724
-2330.5932558290070	159.3491982637880	188.6379228398708	-1018.1199214601423
-2426.9307049430260	163.0431369594499	216.0155553836292	-1041.2807990647316
-2487.5793561433975	165.8161480207620	233.5371772691222	-1056.8547435825758
-2485.8775479647570	167.7331409136225	242.4317410506893	-1065.6596142839926
-2442.4700310790577	168.7610708190287	236.8448062950142	-1063.2996634602146
-2343.8556365794702	168.0978140947597	202.3633244470745	-1039.0483068285355
-2179.0489291011004	157.8393647479254	147.9601440382176	-998.8921640982824
-1960.9472228225736	128.0695233427910	89.1210900689471	-954.0696208560015
-1791.0260428221277	99.6210813070633	40.7426882675514	-915.6322021045925
-1735.8541769807550	83.7084273944411	12.9571095653903	-891.7616476728496
-1715.3368848963840	74.2395131873504	1.5594007443667	-877.1861287577304
-1677.9230687526547	69.4373928829900	0.0204563165255	-869.1967569824168
-1676.7031641844706	71.5817656018454	0.9579063603766	-870.1778733942357
-1794.6826094010603	88.0982742426722	19.8681974253890	-888.2187710069144
-1983.6631755427330	119.0482877550468	68.7446318560400	-925.0314861573561
-2152.4454894596920	147.9546365683838	126.6297133719579	-968.9500175654908
-2292.6707855070570	157.9668233355073	176.2236924438110	-1008.0152878779517
-2405.6781656358440	161.9160725970354	208.4294090782892	-1034.7811978794570
-2474.8944729440773	165.0030094388735	228.5934363118930	-1052.4228039291860
-2482.9420665433486	167.1820005395413	240.5949998611212	-1063.6411265899094
-2458.5443685703717	168.5313306488192	241.0060931451432	-1065.9255463988240
-2391.3453687841140	168.6237774638864	216.4014716626968	-1049.3213116313590
-2239.6185087702880	163.3409337211768	166.3822372415348	-1012.7969518657866
-2019.9396991657852	138.6151479023871	107.3992022751811	-968.1880197749161
-1831.7970552202528	107.4259528429452	54.1006629587010	-926.5192897938834
-1754.2141144530908	87.6096829902748	19.5629262403162	-897.8985426304987
-1723.8427786639666	76.7446251803190	3.5739545314258	-881.0791231488137
-1678.4746025174380	70.1077306399024	0.0928402057696	-870.6381405160594
-1665.5658800084448	69.7324359098000	0.1412272621664	-868.4076152333754
-1752.5449577027507	80.6671238740830	9.9720609154774	-879.8057174451013
-1924.5314388908669	108.3390126632467	51.1026324156084	-911.9126930132737
-2092.5954213852187	140.5317474045452	108.2021126988068	-954.7745769947262
-2249.1558729595986	156.2681622824862	162.1300771391484	-996.6982241509227
-2381.3379027054193	160.7543898528087	199.7897624718860	-1027.4094495069323
-2460.4416919281116	164.1509251774460	222.9054001456976	-1047.3118719234315
-2477.0604821515660	166.5911277045164	237.5914618481948	-1060.5848742228598
-2466.6372021004200	168.2087502728403	242.5198605680299	-1066.3940747253982
-2430.6714571322740	168.7949024194362	227.7629885390983	-1057.1859785540078
-2297.9052421933700	166.4794047450309	183.8188867353066	-1025.5384833262540
-2081.4404346275846	148.5187588356446	126.1552841848474	-982.4456790024850
-1879.7498082816370	116.3700838530163	69.3221294071829	-938.6097596418570
-1777.9934022418738	92.3669567545601	27.9716525044027	-905.1656490761815
-1735.4273480686363	79.6132301823175	6.8941720597949	-885.4595286201869
-1681.0021377804442	71.5274776849124	0.4028320792713	-872.8942361944003
-1661.0666705449428	69.0223656919438	0.0295043026810	-867.9906210888171
-1720.5021048190720	75.0404566574641	3.8335923950186	-873.6515132965460
-1867.1357354087510	97.9007837654094	34.4732206431890	-899.4843005519272
-2028.8920913806069	130.7634628729180	88.9739619462445	-940.2616072012910
-2197.5229498771370	153.4267012389542	145.8444888406382	-983.8626723125782
-2350.9126723900645	159.4636749581903	189.3196689271532	-1018.6533592526148
-2442.8429654649450	163.1524995747208	216.2315268792542	-1041.4334346572678
-2467.7237472204860	165.8967931147567	233.5009853245002	-1056.8020292284523
-2468.6088763009160	167.7732667652687	242.0745422928980	-1065.4062706716384
-2458.4727714625324	168.7524162235756	235.5497641026693	-1062.4625280454788
-2351.9677462539366	167.9561934418909	199.8353957933659	-1037.3594805430746
-2143.2102493298353	156.6883035526637	144.8145919817200	-996.5794201587939
-1932.8728953448410	126.2371094509494	85.9653098541868	-951.5963735099284
-1808.1527004423974	98.2595560860104	38.2682607493711	-913.7403862166865
-1748.3655748803110	82.6875785216783	11.3410605598760	-890.3352129858985
-1684.7601991605995	73.3484832463840	1.0865451200658	-875.8824319699326
-1659.6886229143886	68.8028536799972	0.0161290187989	-868.1936106912626
-1698.9875673040829	71.2977375147030	1.0330439845376	-869.5720517125190
-1815.2412075091847	88.6230574396917	20.5790544246500	-888.6125551000304
-1966.4019783022375	119.9751162499328	70.2336156646747	-926.0901005375504
-2141.9317295469914	148.5997973203417	128.3952508443893	-970.1569402404953
-2315.9095544707240	158.1678459844406	177.3983570812174	-1008.6781512115182
-2424.2584019015317	162.1131613389446	209.1080080399523	-1035.1439041070823
-2458.0498764574380	165.1709872688040	229.0316735543816	-1052.5809469915566
-2469.0077744731634	167.3255881459222	240.8416558315344	-1063.7142972605582
-2478.1962011094333	168.6434469990071	240.6044412379790	-1065.4853422028232
-2402.5577905843000	168.6521015944602	214.5674842080455	-1047.7339801471210
-2206.4352162403125	162.7079680809936	163.7008862138851	-1010.6427443793706
-1992.1509733380049	136.8775411698271	104.3315415777613	-965.7309014476420
-1847.1994813918450	105.7796127533451	51.2202562356301	-924.2506056130654
-1764.6240192203543	86.4322646179514	17.4091121446028	-896.1589689444265
-1690.4360402150203	75.6730289069448	2.6247027665022	-879.5279836091976
-1659.8923992982386	69.2186676524481	0.0464201028848	-869.2604862762078
-1687.2098430645276	68.9924679985604	0.1329660574157	-867.1936115257275
-1769.4749199718142	80.4731822577932	9.9940907948125	-879.1597699117386
-1904.0770893188820	108.7383042261963	51.6817035295610	-912.1286645088987
-2081.1638809637880	141.0793472623047	109.5207583332966	-955.6069917210331
-2274.0791409109997	156.4876742944329	163.4931759230108	-997.4547144716638
-2402.6014569522686	160.9746886461602	200.9152532714907	-1027.9456410343219
-2447.2800191974660	164.3763380499289	224.1024880531416	-1048.0121073737273
-2467.7536449138693	166.8216546561306	238.9368580504486	-1061.4790512894454
-2491.1340345304050	168.4443913035859	243.4199384951518	-1066.9113834990717
-2446.6600354504626	168.9774357053560	227.2822651007491	-1056.7839332561414
-2268.3793030237320	166.3039524917546	182.0706584537814	-1024.3492632328587
-2054.1784589503360	147.1965726848331	123.5089449297124	-980.5601573658178
-1892.3166742702333	114.6273630413250	66.0624940469854	-936.2014217616822
-1783.7337593714904	90.8555496758878	24.8760610671116	-902.9292229329612
-1696.3982697007975	78.0849073034414	4.9236780314062	-883.3037475709614
-1660.3534532014671	69.8996269583257	0.1628637507991	-870.6283057484990
-1684.0808134175318	67.4358209891106	0.0562548704451	-865.5716616596773
-1733.1909219254162	74.0274755987496	3.6479119834795	-871.9013180615088
-1842.3261573703476	97.9070780166481	34.3528430882505	-899.1267084034333
-2017.2504803240872	131.1800636267738	89.9810421444228	-940.6471300896561
-2226.2066395529073	153.7256781727884	147.7626619056060	-984.8839145760435
-2377.6526186052106	159.7933363668128	191.5537347261590	-1019.9948215478445
-2436.3221211817410	163.5423497608125	218.8141368405982	-1043.0907896865356
-2465.6820494749604	166.3145740407197	236.4907546628421	-1058.7760637731626
-2500.4483461914474	168.2311735428778	245.0265461238082	-1067.4180707237804
-2483.2076052674774	169.1989146708148	237.4868199213528	-1063.7618975355504
-2329.8001801729410	168.1835732678858	200.0379920051088	-1037.5266715916005
-2119.4053911453952	156.0993976711509	143.4274963650103	-995.7332367579027
-1944.7163158316987	124.9204307699717	83.1679085693250	-949.8398840236525
-1809.6908580888340	96.6966148253220	34.6766036363368	-911.4001049280291
-1703.6685232721000	80.9767223568824	8.3229670909604	-887.7864346249621
-1660.7995582580038	71.2151254671962	0.4669547637647	-872.7742520301641
-1685.1787668679672	66.4861758334846	0.0102281582627	-864.8356276554616
-1712.5304356253664	69.1557251400620	0.8182526610199	-866.3741786926006
-1783.8773469778712	87.5841125946179	19.3556093401443	-886.7341144960063
-1951.3221325066247	119.7862887127744	70.1305473006424	-925.5696446382576
-2171.5686048947096	148.8421259930284	130.1332509676517	-970.9976161715525
-2346.8717630948736	158.5474680122695	180.2413916875591	-1010.3433740548342
-2423.4074978122107	162.6540735547630	212.7669349630994	-1037.3740359990640
-2462.4448373848004	165.7693345271748	233.5898916232456	-1055.6907004941345
-2507.9062471278007	167.9919919958105	245.5898816096642	-1067.0199593329380
-2510.8798874473430	169.3204723978606	244.7629743531912	-1068.4310517824950
-2387.7222404148865	169.1690169774314	216.7032023314479	-1049.4920431962062
-2186.5540369217440	162.7063945181840	163.6816100694668	-1011.0097779047223
-2004.1316871800047	135.9939856522066	102.1132114068522	-964.6534043137317
-1846.0649426060845	104.3374424382975	47.5267109306706	-922.0303084886441
-1716.0587568353126	84.7489458023245	13.6164323826352	-893.5283653173882
-1662.0391323613087	73.5070196994567	1.2856008154870	-876.2195678019009
-1685.3597265910773	66.7741378276512	0.0196695351207	-865.5799228644279
-1705.1752096623431	66.6010459185894	0.1022815826275	-863.5708765472025
-1735.9013838650446	79.0235375193998	8.9661608894063	-876.8922659030278
-1885.5889064775592	108.3338985841153	51.0184468052920	-911.3741411416698
-2110.4105127347125	141.3834382752702	111.1171378036902	-956.1687536440793
-2307.2529920641170	156.9388934301011	166.7555650181252	-999.1620301201380
-2405.0983077404867	161.6056873328313	205.2095061790355	-1030.6360400481271
-2455.0620740726080	165.1009637237744	229.2834436039261	-1051.4385403917480
-2509.6831929306020	167.6119765772792	244.3451934272281	-1065.1261764915200
-2527.7016672732434	169.2410074759730	248.6461339767139	-1070.6049288040315
-2437.4303027904393	169.6580016205312	230.6426084807644	-1059.2591475557265
-2252.5842729311316	166.5997822999694	183.0203036094074	-1025.2815991975783
-2068.4156618613790	146.7516478004036	122.1092608105255	-980.0133442894631
-1892.0424809506510	113.4841696601116	62.8988460181768	-934.4944995039104
-1735.0748699992740	89.3720733370868	21.0176850578409	-900.4492879449472
-1665.4006559134311	76.2922258725436	2.9779676172695	-880.4229474571881
-1684.9978071448570	67.8716978873846	0.0424861958606	-867.4740990965485
-1704.0575866767865	65.3866488202392	0.0102281582627	-862.4890521155656
-1703.1921271314770	72.5239363341256	3.1903985965727	-869.4870793207978
-1822.4827435592108	97.4979516861381	33.7104360712094	-898.1986997364401
-2045.8212668682652	131.6226281669889	91.4279331478993	-941.2993718742575
-2258.6578319856920	154.2319720067944	150.9782375071331	-986.7607816172576
-2378.8091872703060	160.3802752948135	195.6674213012959	-1022.5239303736604
-2441.7859246475605	164.2299967086311	223.5934404842187	-1046.2607319665829
-2505.0494438468740	167.0447071843990	241.4573122808114	-1062.1918752422184
-2535.1717633213710	168.9652405935813	249.6547877377019	-1070.5604756546588
-2474.7855037195090	169.8546969717380	240.8046771055075	-1066.0848696333014
-2315.0964158888360	168.5565076537737	201.1469603952122	-1038.5345385711835
-2135.3066367276474	155.8857865197404	142.4400857019526	-995.3866595490765
-1946.9861801846240	123.8464741523831	80.4295158898253	-948.1966910596717
-1763.8832645277100	95.4051131492988	31.2867559536405	-909.2718612279726
-1672.9895559536878	79.7241663603981	6.2206871772632	-885.5669242819456
-1684.4061475284275	69.8697292649423	0.2234459189708	-870.5508077801237
-1704.4100647461491	65.2241784601424	0.0094413768579	-862.7848819237806
-1685.5701906168686	68.3669767817231	0.7777334186713	-864.9563986011027
-1765.8730347005169	87.7520904245484	19.5361756725521	-886.6133435503652
-1979.7929978123898	120.7807804084754	71.9566669412454	-926.7698796713208
-2202.4096491825160	149.6733605472279	133.2811633683638	-972.9209033156518
-2344.8666506846725	159.0592693161094	184.0281705889905	-1012.8492728292075
-2424.5467572864004	163.2158354778094	216.7150040525203	-1040.1281643066602
-2496.8956347579520	166.3637478785214	237.4533817116477	-1058.3574960657950
-2537.6182600996800	168.5742102353823	249.1268574150631	-1069.5447408610273
-2500.4503131449596	169.8389613436414	247.4757966370340	-1070.5077613005353
-2373.1667844255910	169.4896303998984	217.5828239420442	-1050.3213107968938
-2203.5072092422497	162.5222876694545	162.6167014380337	-1010.4519498887001
-2009.2264901669607	134.9806112027897	99.7210025454762	-963.1081656346518
-1803.5268191727184	103.1419280936632	44.6136527792993	-920.2234649924594
-1686.5985139129775	83.8335256378085	11.5755214185144	-891.9465413029839
-1684.8030787471625	72.4602070403346	0.8524776521298	-874.4638650970297
-1704.5918112506640	65.8012826205829	0.0275373491689	-863.9685945473426
-1678.9002512574493	66.0723288145457	0.0999212384130	-862.6381471917804
-1719.1213034536008	79.4558739013522	9.4547521418038	-877.0413609792424
-1913.3524553003851	109.5608841849428	52.9295388376163	-912.6310244358807
-2139.1598986577865	142.5179770610305	114.0530126158014	-958.2985709069455
-2301.4548065012464	157.3747703283751	169.9904167640706	-1001.5876771912190
-2400.8036614422394	162.0140268819364	208.0729971019026	-1032.7033081893096
-2483.2662204821370	165.5124503984988	231.8357624811843	-1053.2670203765656
-2533.4754626125650	167.9990730284540	246.6481025991562	-1066.9223984387395
-2513.0950704926336	169.5718490567027	250.1681626043514	-1071.8087043534165
-2420.6954623097730	169.8645317392983	230.7177461049254	-1059.4660710651958
-2268.3364234371690	166.4388855026824	181.5085031400327	-1024.3004827857594
-2074.2040126566903	145.5065662272652	119.4019459965165	-978.0381295726454
-1851.5669049700384	112.0423927357665	59.9700522387090	-932.3985138414517
-1707.0670255502491	88.4999261498363	19.0334223548677	-899.0598319840230
-1687.4344691556060	75.4661053974754	2.3469689305984	-879.0212963844890
-1704.0855174166581	67.0837363104506	0.0420928051582	-866.1723692622625
-1677.7491900621878	64.9499851405603	0.0196695351207	-861.7408229995755
-1686.7480023798946	72.9232278970752	3.5629395917582	-869.6963631744818
-1850.1361429853610	98.7465737755983	35.5176729580966	-899.4638442354016
-2072.8318658866724	133.1906835068087	94.3268292339837	-943.4378437325768
-2249.7695624553635	154.8248117953314	153.8798873281345	-988.9047609454108
-2370.8855117422954	160.6800390100526	197.8932258955510	-1024.2190509103598
-2465.9275252732664	164.5195322656074	225.3090173374435	-1047.5884255872280
-2524.9554067796950	167.2949036711340	242.7818587758372	-1063.2064298637426
-2517.5844451885755	169.1694103681338	250.4356682819925	-1071.1891139971153
-2456.7709632838914	169.9652397591161	240.4364634080486	-1065.8921081891190
-2329.8379456803730	168.4672079643259	199.1442083292256	-1037.0856806141949
-2142.1654036242253	154.7229236034063	139.5592855881793	-993.2426802209235
-1909.1537963335270	122.2209837700109	77.5628778413389	-946.1062128670468
-1738.6063383348390	94.5164435525469	29.5220052626139	-907.9602966261264
-1695.3073972830055	79.2021368982955	5.5279261503132	-884.7411971975799
-1703.2035354618472	69.3866454823786	0.1593232344774	-869.7282278213772
-1677.8573725053516	65.0998669981798	0.0208497072279	-862.4005392075227
-1669.0462075526962	68.8638292388712	1.0047198539638	-865.3836209039237
-1794.5000761151402	89.2249452143842	21.4275981697557	-888.2459149653810
-2006.3228733924475	122.5419905831803	74.8181909106005	-928.8906489480315
-2191.6858186347267	150.5584896276581	136.2197919153919	-975.3072113164914
-2334.9319618859240	159.2878293142115	186.1402852702481	-1014.6628039673333
-2445.9570462652500	163.4188250802547	217.9844758492083	-1041.2213970686670
-2513.9593498658360	166.5183504245699	238.2818625309303	-1059.0537976090666
-2517.8952238434820	168.6816058971412	249.4824826100448	-1069.8983991024970
-2481.6434838346820	169.8708259905369	246.9167884489046	-1070.1493823706367
-2386.3984807012653	169.4231473711905	215.2338880579338	-1048.5526261988432
-2209.6134197251100	161.6403057146437	159.5002602935148	-1008.0058465010937
-1971.4775051447755	133.1777016136291	96.5644355493111	-960.7151699918711
-1777.5842759113639	101.7426373651788	42.2391464995320	-918.2805083132396
-1707.9352388304756	82.9004028916839	10.3099835288505	-890.4925692668638
-1703.3003095746408	71.7965569253632	0.6372929379097	-873.5150067228087
-1678.2543037240864	65.3768140526788	0.0074744233459	-863.3061246044784
-1661.8208005214692	65.9802753901810	0.1353264016302	-862.3482182441018
-1746.2825711110320	80.3516245307475	10.4885829077462	-877.9611084414848
-1938.6883900986184	110.9881056532986	55.1765865298017	-914.4103305828964
-2126.9026311519897	143.6080626974180	116.5872355207486	-960.2722120609535
-2291.0669316133176	157.6320478477535	171.9274725827542	-1003.1069520839395
-2421.8602921796190	162.1800377583548	209.2232715157594	-1033.5715214695358
-2499.9546408599185	165.6430561117001	232.4946919077267	-1053.8079325923838
-2513.9412538935250	168.1025347831886	246.8861039741163	-1067.1206673527558
-2495.3291529809410	169.6210228945044	249.8923957219595	-1071.6859664542635
-2434.5400612998083	169.8448622041776	228.6925707689012	-1058.0069849499444
-2274.5154111999764	165.9211833383063	178.4018967630740	-1021.9582345435899
-2036.7083712468589	143.7662057597882	116.0923500171125	-975.4991859792692
-1825.0543385808871	110.4322445907884	57.3225328114668	-930.2545345132987
-1727.8195652746633	87.4531134907142	17.4484512148441	-897.4433895878063
-1705.3357130689278	74.7568219610240	1.9382359907908	-878.0484411774207
-1677.6484820423698	66.6454990679621	0.0251770049545	-865.5445177012107
-1660.3023124101535	64.8756342978042	0.0239968328472	-861.4937736384597
-1713.4395615386440	73.7033216599610	4.1652207571531	-870.4725230303433
-1876.1007161260504	100.2339840214233	37.7261683614455	-901.1967302795326
-2060.3157472986870	134.5573228069929	96.8850489717780	-945.3591639231639
-2239.8714589919400	155.2571481772838	155.9896416651775	-990.5385125325337
-2392.2902932513107	160.8574582168410	199.1823672273597	-1025.2808124161734
-2482.4987152217280	164.6635132626907	225.9533913079967	-1048.1427130869283
-2505.6108123792187	167.4160680074773	243.0839828352908	-1063.5270432862094
-2500.4333973447556	169.2433678201875	250.2299249446303	-1071.1253847033245
-2471.6210689092954	169.9963176246068	238.8424442818694	-1064.7776323291816
-2336.6046591525865	168.2488761244865	196.2413783361170	-1034.8956745738594
-2105.7456857854945	153.3444825821498	136.3562984891294	-990.7776940796009
-1882.6797822332120	120.5616617872312	74.8850673300108	-943.9567260690601
-1758.9147399562287	93.3791510318698	27.7706298554694	-906.2990076898344
-1712.4364152474898	78.4428928426376	4.8870926960817	-883.6806158638733
-1676.6095371972963	68.9460478956756	0.1219511177482	-869.1302739537089
-1660.4069543369950	64.9074989446996	0.0118017210724	-862.1176912924875
-1694.7605842066507	69.2045055871612	1.2230516938033	-865.6747300237096
-1819.3352245492010	90.4865491970240	23.0570224591520	-889.6526801172113
-1991.7717447008780	123.9487557350106	77.1592589806627	-930.6400574016639
-2180.2892899858107	151.1922420492461	138.1552741712659	-976.8284531627241
-2354.4740384190127	159.4019126179114	186.9549974149462	-1015.3740543572967
-2459.5246982007850	163.4868816717722	217.8039095168006	-1041.1749769657822
-2491.4337982456445	166.5435274295244	237.5438615732028	-1058.5431764773340
-2497.6442572646442	168.6450205618167	248.3428297451532	-1069.0360866828069
-2494.0907590497445	169.7952949756736	244.7684818230249	-1068.4971414205004
-2391.7112221373586	169.2579232761768	211.8467941101544	-1045.9920461168344
-2173.7460224325678	160.5883789763902	155.8999485850273	-1005.1993972300763
-1946.2407048035507	131.3275851401788	93.7339894454467	-958.2938502185166
-1800.6499529659690	100.6903172362229	40.8933569065758	-916.9087549339240
-1728.1169686456880	82.7800253367454	10.3178513428988	-890.3179037949924
-1676.5143366473121	72.1561160273690	0.6990552781886	-873.9363281650933
-1659.9514079036007	66.2528951469535	0.0082612047507	-864.4709544743246
-1686.6819127418892	67.3060020573142	0.2328872958287	-864.0870051487691
-1773.4926192155622	82.4468234118013	12.4763861270411	-880.5146074908504
-1926.0294706856570	113.3032099370014	58.6809109069003	-917.1184321783104
-2115.8208150650044	144.9672275742563	119.2622922971597	-962.4807074643023
-2309.1483484683454	157.7650139051692	173.0411616612865	-1004.4326787510728
-2431.5892376410050	162.1690228186873	208.6508880437479	-1033.7158958573218
-2472.5124922409640	165.5364472313460	230.9227026608828	-1053.0408207226778
-2488.4593711446964	167.8963980551240	244.6543985193250	-1065.7571751781911
-2503.0840638976174	169.3802677846274	246.7732008425237	-1069.4904529440944
-2436.3752289265667	169.5836507777751	224.4227080849061	-1054.7622984364389
-2237.5217363264246	165.2075726041284	174.1288869534596	-1018.5616992189524
-2011.9133486644444	141.8893387185739	112.9763022632959	-972.8622881009921
-1849.8804390287924	109.0982567189046	55.8898038732772	-928.6660228569535
-1751.7463745768514	87.3512252987892	17.9319283881102	-897.4378821179725
-1680.4439163737197	75.3638238148479	2.2970083113919	-878.9658282954487
-1659.3687962733263	67.8355059427626	0.0224232700376	-867.2384580658028
-1684.2912774433228	66.5790160392542	0.0251770049545	-863.8045506244360
-1740.0732922641387	76.0550112789883	5.6789881800399	-873.5032050017363
-1865.5798751807063	103.1163576980064	42.0176675340733	-904.9158459801489
-2050.7280290994677	136.7489024101379	100.4574299403941	-948.5043225889591
-2258.2561800785274	155.6210345770162	157.5553366607829	-992.3052301770723
-2400.2273440632040	160.7925487509428	198.5600231361417	-1025.4122049107796
-2452.1171512743413	164.4624906137574	223.9703087771307	-1047.1698578798600
-2476.6926618448090	167.1056827432731	240.2767467828687	-1061.8551328009526
-2504.5337086360110	168.8822351553720	246.6170247336655	-1068.7540255491765
-2470.8976234075570	169.6045004850031	234.1972868677720	-1061.4770843359333
-2297.9418275286944	167.7213391925501	191.2535776202175	-1031.0054339176934
-2079.2256449729970	151.5344919603458	132.5057902939070	-987.3949274295481
-1906.3469536718073	118.8547395294594	72.8705135429518	-941.7372157260436
-1783.5048059826856	92.9479948220247	27.9704723322955	-905.8580167124290
-1690.7523263397604	78.9220427181772	5.6258804352141	-884.4229441193276
-1658.9757989616155	69.9409329820792	0.1935482255874	-870.5736244408637
-1684.2853765827867	66.4771278473291	0.0212430979303	-864.2573433229139
-1718.0902264225754	71.3602866363867	1.8870951994771	-868.5830674866519
-1809.0637933091870	93.3189622544005	26.9519838037472	-893.3489791570877
-1984.9397283720643	126.6745599120331	81.4039446597033	-934.2820685246072
-2202.1476509747090	152.1119895114886	140.7673884352908	-979.4456815058804
-2365.0357919974080	159.3971919294825	187.3708113873972	-1016.4165397186923
-2430.8390415715030	163.3495883166299	216.6229506281555	-1040.9731675354440
-2463.8555364436550	166.2811358310146	235.4537767712804	-1057.5612732841103
-2502.9322150864860	168.3157525438967	245.3849250537068	-1067.2870716198765
-2494.1359989805220	169.4404565620967	240.8003498077810	-1065.8578831980090
-2351.9524040165430	168.8653193551682	206.8971522923889	-1042.2709634627060
-2143.8982896683560	159.1049026375893	151.4876784667585	-1001.5156866926774
-1965.1675182780646	129.1379724905458	90.5923712959732	-955.4193443559817
-1820.7770014735463	99.6360301537550	39.8909973968264	-915.5759472341474
-1706.3620694115243	82.6694825493672	10.6888187752746	-890.2699101292978
-1660.2452707583036	72.5282636318521	0.8210063959368	-874.6290891920434
-1684.4844322782076	67.1439250879198	0.0074744233459	-865.7966811414577
-1707.1059712297880	68.7159143347638	0.4331231633572	-865.9520704689110
-1760.6102538836305	84.7835641841369	15.2269739183156	-883.4445814424253
-1920.7879329667012	116.0404224443939	62.9975870844826	-920.6908131469264
-2141.6197707199770	146.5514119328751	122.6493862449391	-965.6077701577866
-2323.5692648374156	157.9290578280756	174.3818371751114	-1006.0219771888229
-2406.5184481761990	162.1525004091859	208.3959708685840	-1034.0656201917673
-2448.7363515778006	165.3842050295120	229.8912322391548	-1052.7312222398784
-2497.6839897255886	167.7059969551560	242.9144314425506	-1064.7898274409565
-2507.4888595925400	169.1556416935494	244.2138009326220	-1067.7654347140115
-2399.2977618334007	169.3082772860857	220.4293990647076	-1051.9373598024080
-2207.3171981951236	164.2917590489100	169.9853026849392	-1015.3402227568891
-2028.0407939005845	139.7075938829891	109.4377528950873	-969.7788917754759
-1865.9984428880744	107.5262674720606	53.9094750773281	-926.6168506880821
-1727.7570161529798	86.8095263015659	17.6187893889891	-896.7895742403954
-1665.0694209419992	75.4609913183440	2.4417760898800	-879.1707848514061
-1684.3447785788508	68.3154425997070	0.0432729772655	-867.9084024320128
-1703.2786730860080	67.4421152403492	0.0523209634210	-864.9862962944861
-1722.6944712036216	77.7784559462614	7.1246990114092	-875.6735415069509
-1859.3088339935343	105.3834683160148	45.4976016876223	-907.6680073342330
-2078.0698630893066	138.6127875581726	103.7654523569885	-951.2970031853916
-2275.6066770084710	155.9762663812955	159.5140289680992	-994.3087690244638
-2377.5609585715483	160.8460498864710	198.8645075398096	-1026.2064607389523
-2430.1502144515766	164.4050555712051	223.3235744623631	-1047.1348461073453
-2487.6206621671510	166.9829448441201	239.0261577398965	-1061.2772418591073
-2511.2303985631943	168.6985216973449	244.6343355935020	-1067.5156316179790
-2436.3307757771940	169.3810545660322	230.7889498220622	-1059.0648125487342
-2267.0346936028827	167.1851476651606	187.0856031281475	-1027.7725491252600
-2092.4860587699480	149.5789467786487	128.5762105674995	-984.1325383344339
-1918.7635444120815	116.8275972399231	70.0392806576825	-939.2171548863834
-1756.6283531938018	91.8763985486506	26.8323930302135	-904.5287495289741
-1675.7979721782174	78.5640571789810	5.5224186804794	-884.0012292863403
-1684.6429687312802	70.0896346675914	0.1966953512067	-870.9449852639418
-1702.9871705755200	67.0424302866972	0.0173091909062	-865.1940065853604
-1697.4761602254102	72.6631966427799	2.6054266220840	-870.2663863022786
-1802.9143098490608	95.4361910147895	30.0566232271937	-895.9929580680082
-2013.8980047581200	128.7622843697410	84.7847443562441	-937.0487853346807
-2221.3034178380270	152.7850810033179	142.8743890374170	-981.3457585985371
-2343.2002476692496	159.4617080046782	187.9164442916446	-1017.3158308644092
-2408.7824116685883	163.2854656321365	216.1323924222460	-1041.1057402021574
-2474.2764561505860	166.1418755223603	234.1941397421526	-1056.9790550445384
-2508.9078198561456	168.1363663835962	243.3333925406209	-1065.8940751426310
-2460.7009364010014	169.2213379408524	237.5843808155514	-1063.5085539231960
-2320.4949164980550	168.4872708901490	202.6217821385601	-1039.0903996336936
-2155.5261320502910	157.5730392423915	147.3173436304741	-998.2517240347532
-1976.2186498902620	126.9991072415241	87.4952062958725	-952.7092758070559
-1792.8199044251328	98.1942532294098	38.2525251212746	-913.8017551662630
-1692.4442997508406	82.1285703335488	10.4972375031993	-889.6880852804285
-1687.1193632029726	72.4354234260825	0.8497239172130	-874.6046989684938
-1703.5866980059977	67.3657974440810	0.0275373491689	-866.2073810347773
-1683.9474539694133	69.4279515061320	0.6664038498883	-867.0075377234862
-1754.1625802710748	86.5416272332224	17.5782701466406	-885.7337219397690
-1952.1352710885133	118.0947086923967	66.4370019956830	-923.3151225227263
-2164.0752987951396	147.7028665188392	125.4247576504657	-967.9677209815646
-2304.7974472996530	158.0753991693734	175.6776661488612	-1007.3960909123529
-2386.3729103056085	162.1465995486497	208.4600935530774	-1034.5636528210225
-2459.9239897637350	165.3039533262197	229.1276608857704	-1052.5703254425912
-2504.6076660880644	167.5569018789413	241.4254476339159	-1063.9975385662958
-2476.5659900386318	168.9687811099030	241.7472412284900	-1066.0907704938377
-2369.2391716526950	169.0643750505894	216.6799922800054	-1049.1246162801524
-2217.6763555617760	163.3393601583672	165.8240158348102	-1012.0200052285201
-2036.3857908708799	137.6053139692919	105.8862216336991	-966.7655189949893
-1834.5968168493291	105.8944828384498	51.6486587105583	-924.5385676072319
-1711.2530960146303	86.0408408690501	16.9055720455136	-895.7632178977988
-1692.0697918021430	74.9743670194586	2.3237588791560	-878.5346720856037
-1703.7121896400677	68.1679210863019	0.0326514283003	-867.8513607801628
-1677.9462788040970	67.7072605737758	0.0759244055658	-865.4973108169211
-1711.9682803116180	78.9476131138340	8.3461771424028	-877.1786543343848
-1890.1128995553133	107.0927509180010	48.3469305452026	-909.8001849413138
-2101.9376637861330	139.8417401125121	106.2253244191795	-953.1876389011907
-2259.4328116694464	156.2795706128562	161.0537601773453	-995.6183666727978
-2360.7541275923400	160.9499050319081	199.4089602719498	-1026.8374594256234
-2445.2084237585573	164.4365268273982	223.1886414514352	-1047.2493228017477
-2498.5895751225444	166.9636686997018	238.3636877970323	-1060.9342051666029
-2485.0648027735715	168.6639033155326	243.3550290292536	-1066.6305025375489
-2410.8760369868320	169.2705117786540	228.3778582069704	-1057.3358604116274
-2278.1204435968925	166.7665799577927	183.7602715206470	-1025.2556354112191
-2099.9034404639530	147.9424414566090	125.2957255000741	-981.5884806619264
-1884.6022825959064	115.0962847586018	67.3551758951158	-936.8902488816082
-1736.3647981124873	90.9975637194590	25.5188614748551	-903.2163981457230
-1701.0213972355600	78.2623265102299	5.2195078396210	-883.4992627500609
-1703.6445264392523	69.9960076804170	0.1837134580271	-870.7353080195555
-1676.6968699332322	67.2934135548369	0.0177025816086	-865.4603320908942
-1683.0816010334015	73.5066263087542	3.1176213166262	-871.2077702531541
-1833.0295482909141	97.0125075593600	32.4338832418779	-897.8104231131581
-2040.0002646446544	130.2729046670085	87.5384792731380	-939.1254948527210
-2209.3105088842517	153.3775274011526	145.3625852301818	-983.3489040552263
-2331.6137113110670	159.6831869701370	189.5549165671964	-1018.6675213179018
-2429.0742908804760	163.4790138577239	217.1257039458399	-1041.9491698681318
-2490.7209742928712	166.2937243334918	234.8255318195261	-1057.5899908053862
-2488.7614952041495	168.2638249711781	243.5517243804603	-1066.2548144167440
-2441.6761686415875	169.2764126391903	236.9588895987140	-1063.2150844591956
-2335.4280275616680	168.4141002195001	200.6091953050131	-1037.6576706955040
-2163.7767152520078	156.6572256871731	144.7555833763580	-996.3603015375497
-1940.2666735967010	125.5333334843318	84.9122029438261	-950.7486165462275
-1768.6991535066550	97.3134514467062	36.5129514352025	-912.3320475020465
-1714.3514411868382	81.7147233146099	9.6911799539542	-888.8383613632155
-1704.9808746553510	72.1478548226183	0.7049561387248	-874.0551321572223
-1676.7975779530498	67.4094638120489	0.0236034421448	-866.1475856480104
-1666.9356664342483	70.0082027921918	0.8084178934595	-867.5586780975673
-1781.8120457902010	87.7843484621463	19.0806292391573	-887.0008333922425
-1977.9051158315080	119.5773982497928	68.8945137136595	-925.1089841257314
-2152.7539077703840	148.5600648593980	127.8484377680347	-969.7560751147360
-2295.4418296148574	158.3665082891593	177.6088211070086	-1008.8331471482690
-2409.1077457794836	162.4101713192667	209.7779524061623	-1035.4452413851310
-2479.2213772799223	165.5364472313460	230.1599180889032	-1053.2788220976379
-2487.2233375577134	167.7795610165072	242.0910647023993	-1064.4967513676586
-2460.4947996729375	169.1210233117370	241.9549515193643	-1066.3901408183740
-2385.7206685210067	169.1111885441766	215.2657527048293	-1048.1411395241190
-2226.1220605518884	162.7846792679643	163.4514765085550	-1010.3067887195097
-2000.3354669017153	136.2237258224160	103.3331159750361	-964.9523812475659
-1809.4693791233753	104.9192672871670	49.7497617900088	-923.0893162595411
-1732.9387584851693	85.6934768788191	16.0259504349173	-895.0228565958568
-1709.4871651514966	74.9287336979787	2.0857575041959	-878.2553646868902
-1676.6779871795163	68.4413276244792	0.0224232700376	-868.0098972332354
-1660.5068755754085	68.2973466273959	0.1199841642361	-866.0268147023695
-1740.8215213801290	80.2300668037017	9.6974742051928	-878.5673235139041
-1918.6313651360708	109.0896021234515	51.5302481091318	-912.2455015475156
-2092.9081669936377	141.5046026116136	109.8295700346911	-956.0066766746851
-2252.5594893168795	156.7099400412964	164.0989976047275	-998.0931875816807
-2384.9476557907640	161.2366868539675	201.5631677583656	-1028.6525641265590
-2464.6206813598490	164.6855431420258	224.8373418852498	-1048.6832319120444
-2481.4857341630136	167.1721657719810	239.5190762900205	-1061.9656755883307
-2469.6301185643815	168.7921486845194	243.9852409345198	-1067.3098882806169
-2427.1702798807950	169.3425022771957	227.3739251344115	-1056.6808648921090
-2286.4544256275203	166.4632757262320	181.4656235534696	-1023.5892323957958
-2063.7362794561714	146.5722616401030	122.4770811172820	-979.5212125207439
-1858.7757895917641	113.9283077631364	65.1694971525070	-935.3229803231930
-1757.7573845097284	90.4200661683161	24.3438034467463	-902.2864225252177
-1718.2094238054065	77.8170082350979	4.7419315268912	-882.7683428249767
-1676.9250365406320	69.7312557376928	0.1428008249761	-870.3049385911153
-1659.1697405779050	67.4491962729926	0.0141620652869	-865.4929835191946
-1711.0701693380080	74.3956892962085	3.8316254415066	-872.1314516224207
-1861.6766526313604	98.7784384224938	35.2072876938924	-899.8942136638418
-2030.1135695116004	132.1914711226786	91.0140861289604	-941.7675068101295
-2201.7117740764347	154.1056935913197	148.3330784241054	-985.7072813161947
-2354.5220320847075	159.9530529919926	191.3782824728826	-1020.1443100147616
-2446.1934740774004	163.6855439764910	218.1453726464954	-1042.7902391898917
-2471.1918796529626	166.4455731446234	235.4313535012428	-1058.1832239846258
-2470.9058846123080	168.3287344370764	243.5808352924389	-1066.3732250181704
-2456.0793824290495	169.2905747044771	235.6689614855005	-1062.4467924173823
-2341.7277862701158	168.2421884825454	197.8538868253096	-1035.7009453416997
-2127.5556597179960	155.4369277282867	141.6060974128362	-994.0514915050854
-1914.5644920545210	124.0478901920188	82.3347070616134	-948.7438975267287
-1790.7726992097732	96.4723821249464	35.0955647344070	-911.1534489576159
-1733.2157055396680	81.4456440741592	9.3288671170315	-888.3843884926306
-1678.4317229308751	72.1749987810849	0.6719113197221	-874.1011588694047
-1658.8802050209290	67.9240188508056	0.0118017210724	-866.7565544553464
-1694.0048806673146	70.9637488083540	1.1408330369989	-868.6971507903518
-1810.9021080615648	89.5522462787922	21.5420748641580	-889.2325388470339
-1966.7155106920613	121.5750362366481	72.2938027732137	-927.7356538457458
-2143.9993910788760	149.6037303929008	130.8205045247679	-972.1518244924337
-2316.8119927420607	158.5805128312722	179.3885206447268	-1010.3823197343729
-2423.5613135768550	162.5490382372186	210.4687464796002	-1036.2174673339687
-2456.8547555035060	165.5950624460056	230.1520502748549	-1053.5014812352040
-2466.7190273665224	167.7378616020514	241.5631343797606	-1064.3236594585967
-2472.8213039423586	169.0214954640264	240.3180528066221	-1065.2693707071985
-2390.2765262456570	168.9219676163158	212.2960462923105	-1046.1482222256923
-2189.8569452592070	161.8696524941507	160.1045084124217	-1007.8634390668199
-1974.2847411971973	134.5840733747570	100.4346132796542	-962.6349166196485
-1831.4945377700967	103.8083319435515	47.9783234570412	-921.4720870819194
-1752.9269400747944	85.3272301348722	15.6069893368470	-894.4355242771535
-1684.5442276649746	74.8150437849812	2.0767095180404	-878.0952546710080
-1658.7877582058618	68.7277160558362	0.0314712561931	-868.3608017397883
-1686.1708982194540	69.0683924041262	0.2147913235177	-866.9654449183278
-1769.4674455484683	81.8673589071463	11.5094317805090	-880.5700755798907
-1907.5534829561093	111.0148562210627	54.8780029866699	-914.7022264840873
-2085.4294163500567	142.9762772293421	113.0722895946848	-958.5479806122756
-2275.1613587333390	157.0277997288465	166.2052114254488	-999.9224543479030
-2399.5074390777872	161.3716198648953	202.3137572185703	-1029.4727837410908
-2442.0911958326333	164.7386508868516	224.7535496656358	-1048.8720594492029
-2460.8708811844444	167.1406945157879	238.9333175341269	-1061.7969109769954
-2481.8889596329873	168.7083564649053	242.6056197411561	-1066.5353019875647
-2431.8244852810485	169.1760980100748	224.6190100454104	-1054.8319285907660
-2250.2349436563180	165.9601290178452	178.0954454058940	-1021.1974169251223
-2036.8389769600603	145.0793439244442	119.4259428293637	-977.1734568087408
-1879.1522478046713	112.5789776538584	63.0231574801394	-933.4740440218500
-1776.6004057646282	89.8917424549750	23.6089496146380	-901.4980675575814
-1693.0406800556990	77.7544591134142	4.6907907355774	-882.7057937032930
-1659.5009755493372	69.9763381452964	0.1479149041074	-870.5732310501611
-1683.7782959673755	68.0994711040820	0.0184893630134	-866.3596232366111
-1736.5363164587397	75.6997794747090	4.7678953132505	-873.7648098188412
-1849.1695820295310	100.5506635368661	38.0967424031189	-902.0956280345472
-2022.5002792477940	133.7788026069167	94.0325729885784	-943.9657740552154
-2225.5882293687140	154.6174948951596	150.5337060134060	-987.4999627470926
-2369.8595487904013	160.1249647289472	192.2874083861599	-1021.0809732772080
-2424.0156798381420	163.7775974008557	218.1331775347206	-1043.0884293423210
-2450.8622349336424	166.4439995818137	234.8440211825396	-1057.9983303544916
-2483.5089425455260	168.2709060038216	242.3534563009091	-1065.7111484660088
-2461.8165924330465	169.1501342237156	233.2920948615187	-1060.8138276116640
-2305.5122382059376	167.9455718929257	194.3806403137016	-1033.1832448462540
-2098.5674856385570	154.0899579632232	138.1261632592872	-991.4169539710227
-1931.3292302285704	122.2957280034694	79.3921446075612	-946.3654573399373
-1805.9831507185875	95.4342240612774	33.4197203421259	-909.6251260787398
-1706.0520775380226	80.9668875893220	8.7143908398617	-887.6597628187849
-1661.1685587368677	71.9924654951650	0.5810380674646	-873.7608759118170
-1683.7861637814237	67.9731926886073	0.0232100514424	-866.6900714266384
-1716.1075372824118	71.4704360330625	1.4870168551227	-869.1904627311781
-1796.2121124520436	90.9389485047994	23.7206725741234	-890.8914674391110
-1959.7721647944647	123.1556800789452	75.1860112173571	-929.8190510057271
-2170.7566464849288	150.4062474258241	133.3594481181441	-974.1093366276426
-2335.2576893875230	158.8145802992082	180.8358050389057	-1011.7473854717474
-2404.0723447885920	162.6989200948381	210.8861340148609	-1036.8795438861303
-2438.8878153428810	165.6532842699628	230.0249850779754	-1053.6234323529520
-2481.3669301708856	167.7425822904804	240.7877613053037	-1063.8858156068104
-2481.3389994310140	168.9660273749861	238.6874483451186	-1064.2733054486878
-2356.1459489042700	168.7610708190287	209.1575752684564	-1043.8335113326920
-2160.4718399610330	160.8830286124979	156.5997906446207	-1005.2218205001140
-1988.3531794969056	132.7551999992370	97.1053477651295	-960.1309847987873
-1842.7097133052007	102.4853590113352	45.6026370051666	-919.6325921574344
-1722.5017097594389	84.5935564748712	14.3567936845772	-893.3076731333343
-1665.4486495791257	74.3433683327875	1.7667176445386	-877.3348304432428
-1684.1579179952046	68.4696517550530	0.0334382097051	-867.8910932411067
-1706.1571128555670	69.1824757078261	0.2840280871425	-867.0449098402154
-1751.1696638071137	82.7414730479089	12.7431050232774	-881.5755822152594
-1899.4012474299964	112.4047055726892	57.3123046532040	-916.4543886726365
-2113.0474106129896	143.9912252415687	115.4979366657658	-960.2670979818223
-2295.7132691995225	157.3499867141231	167.8212604309631	-1001.1285902415025
-2382.0975401517794	161.5966393466758	203.0155662316759	-1030.1002419114402
-2425.8878261909270	164.8684698186480	224.9207407141615	-1049.0455447489671
-2477.0990344404017	167.1997031211499	238.5580228040246	-1061.5604831648450
-2492.5840726595010	168.7059961206908	241.4966513510527	-1065.8181507370653
-2400.1097202431824	169.1041075115332	222.0104362977071	-1053.0805531836215
-2220.9529067221765	165.3708297456300	174.6898620951011	-1018.7454126769796
-2049.0513979257820	143.3712414945652	115.9542698805654	-974.6132701174341
-1887.6624688699803	111.0431803516364	60.1592731665698	-931.2785305116809
-1743.9926438322832	88.9354096574080	21.8087937603943	-899.8710036123994
-1673.3853070003160	77.1746012180568	4.0499572813460	-881.6770770164820
-1684.5544558232373	69.7257482678590	0.1042485361396	-870.0748050302035
-1702.9753688544474	68.1974253889829	0.0196695351207	-866.3446743899195
-1716.2070651301224	76.4901013958575	5.5845744114607	-874.6585934947243
-1841.3481880841478	102.0274522337260	40.5845452051813	-903.9390568660565
-2052.1414818932394	135.1462286885057	96.8122716918316	-945.9929163447518
-2248.9682255945470	155.1049059754498	152.8676930508248	-989.2843829732396
-2355.3273028525470	160.3716206993604	193.7744252412826	-1022.3323491015849
-2410.4602230143814	163.9502959192152	219.0580390760945	-1043.8728504029334
-2469.7268926771753	166.5580828855136	235.3396934675805	-1058.4550569599935
-2497.2429987481830	168.3417163302560	242.1937396757292	-1065.7119352474135
-2434.2902582037755	169.1808186985038	231.7083038936024	-1059.6548986023543
-2278.6971543666310	167.6890811549522	191.7512168587704	-1031.2548436230234
-2111.8090166817924	152.7319732584921	135.0293916498890	-988.9960275883708
-1939.5884680257400	120.6950212353493	76.5306206382061	-944.1132955686205
-1772.4269238027240	94.4444530540052	31.5286912356247	-908.1707606519176
-1685.4301435268096	80.4177141687529	7.8898439276032	-886.7329343238990
-1685.9856111986173	71.5715374435827	0.4893780338023	-872.9713407720734
-1702.7755263776214	67.8984484551488	0.0247836142520	-866.4619048192386
-1693.0658570606538	71.9216551687306	1.7934682123027	-869.7553717798438
-1787.0335205833337	92.3012605072570	25.7631571010538	-892.5020089747917
-1990.0246965914603	124.8511940063469	78.1403753924817	-931.9579162547487
-2195.8907718528235	151.2689532362167	136.1171169420620	-976.0991068004497
-2322.1086051593547	159.1119836702328	182.6693991028546	-1013.1250397115992
-2391.2367929502480	162.9314139999644	212.0344414752056	-1037.8162071485765
-2458.3527872982963	165.8141810672499	230.7409561563678	-1054.3067520030440
-2496.0915441622190	167.8562722034779	240.9506250561028	-1064.1159491677224
-2456.5872498258650	169.0376244828254	237.7547189896964	-1063.6450604969334
-2330.8308638132644	168.6973415252377	206.9203623438313	-1042.3445275240574
-2173.7830011585950	160.1041150217193	153.8405482578931	-1003.2867316349425
-1996.8236681012710	131.2382854507310	94.3748228996781	-957.9968402381945
-1809.2195760273428	101.3063670762023	43.5680202922845	-917.8336164752980
-1702.4627807692027	84.0011100770366	13.3977071520933	-892.3234095958959
-1690.1846635561778	74.1073339113395	1.5550734466402	-876.9674035271886
-1702.9970053430802	68.4621773317071	0.0314712561931	-867.8104481471119
-1681.7133881704078	69.5912086476336	0.3988981722472	-867.5063571341462
-1741.4816309787786	84.2107873214230	14.4811051465398	-883.2659820635296
-1930.3351319235720	114.2957346791905	60.3835058669455	-918.7089107881678
-2139.2389701889720	145.2606970382568	118.5612700654590	-962.5735476700719
-2283.3930591813396	157.6674530109707	170.1284969006177	-1002.9846075754889
-2369.6549856251463	161.8059232003597	204.5210724498120	-1031.4137734667981
-2445.4428846171960	165.0155979413507	225.8239657669027	-1049.9294936572900
-2492.1458354170127	167.3118194713377	238.8727353659553	-1061.9326307693280
-2469.5286237631585	168.7921486845194	241.0265494616687	-1065.5042249565392
-2376.2930603376694	169.0808974600908	220.0710201348090	-1051.6257943660967
-2234.3399923253046	164.8456531579081	171.9794001554728	-1016.7493482529339
-2057.4915954460616	141.8527533832494	113.1041542415803	-972.4413600494098
-1854.0208761716933	109.6714269723209	57.9141924278965	-929.4429694942199
-1724.3376641676025	88.3996115207209	20.9224845078569	-899.0696667515834
-1698.7885116086616	77.0593377422497	3.8949613445951	-881.4465500648677
-1703.3365015192630	69.8536002461434	0.1046419268420	-870.1554501241982
-1677.3019048335439	68.6018310310639	0.0440597586703	-866.8183167956252
-1705.1980263230832	77.7060720570173	6.7450769835802	-876.0700793349838
-1873.1589404534031	103.9731626478628	43.6754159540434	-906.3049085503707
-2079.6143149869818	136.9562193103098	100.2406716633644	-948.6994443773561
-2237.6928612819743	155.6556529588285	155.6230015305283	-991.4972056743151
-2343.3485559640590	160.6218171860953	195.4620713546361	-1023.8044171100160
-2429.8280274663002	164.1218142654674	220.0104379666373	-1044.8638015823126
-2484.6360069079406	166.6882952080124	235.6717152204174	-1058.9157174725194
-2474.6887296067152	168.4353433174304	241.7995621919110	-1065.4790479515848
-2411.9936599723887	169.1666566332169	230.2720344390910	-1058.7410520006480
-2291.6385283039244	167.4404582310269	189.1430365017696	-1029.4157420892410
-2119.4364690108855	151.5388192580723	132.1804561830111	-986.8787988279817
-1905.2446729236449	119.3291687165700	74.2269246848732	-942.3394968914384
-1751.5941323750174	93.7571994968890	30.3567803331352	-907.1176537415569
-1710.6504214585330	80.1391935514442	7.5542816584446	-886.2305743969172
-1704.8235183743857	71.5184296987569	0.4508257449658	-872.8655186731241
-1676.3754697293602	68.1588731001464	0.0259637863593	-866.7482932505957
-1679.3703531468334	72.9086724410859	2.2855999810219	-870.8167398949550
-1818.3899066913013	94.0325729885784	28.2541070287355	-894.3938248626977
-2017.5927302351868	126.7017038704996	81.2985159514565	-934.2623989894865
-2184.6791368340420	152.0868125065342	138.8142035978083	-978.2179091236483
-2311.0173476955115	159.3322824635842	184.5254164368411	-1014.6631973580356
-2411.4149822491380	163.0993918298950	213.1925837031106	-1038.8937042824869
-2474.2477386293100	165.9467537339632	231.3821830013017	-1054.9420779874417
-2474.9880999312520	167.9597339582126	241.0088468800601	-1064.3519835891705
-2436.5392728494730	169.0565072365412	236.9297786867354	-1063.1706313098230
-2344.5122056617984	168.5891590820740	204.6087985764501	-1040.5868578656743
-2181.3447572403857	159.1438483171282	150.9015263201625	-1000.9436966113682
-1961.3091422687940	129.6238100080264	91.6206945920819	-955.8792180871031
-1786.1145599024962	100.3272176178953	41.8347408574511	-916.5137906687011
-1726.1700780594440	83.6183409235884	12.7631679491005	-891.6393031643989
-1708.5969219919350	73.8728730527011	1.3965369935676	-876.5669317921319
-1676.4329047719125	68.5672126492515	0.0236034421448	-867.8265771659109
-1665.5997116088522	70.1372349425834	0.5436659507353	-868.0232725171176
-1770.9340060870652	85.5471355375213	16.1569495388209	-884.7179871461376
-1957.5424262931856	116.0227198627853	63.2320479431209	-920.7950616830660
-2127.9081377873580	146.4097912800063	121.3327075639614	-964.8135143296139
-2273.1582132766503	157.9801986193893	172.1458044225936	-1004.6152120369925
-2390.4641736107080	162.0242550401991	205.6119448676043	-1032.3378482267676
-2461.9082524667087	165.1666599710774	226.5293152963299	-1050.5860627396182
-2472.1423115899934	167.4196085237990	239.2232464818056	-1062.3504116952910
-2451.2678207478310	168.8381753967017	240.7535363141937	-1065.4782611701800
-2390.9716476168214	169.0561138458388	218.3483622489407	-1050.4865348919075
-2242.0709064091334	164.3428998402238	169.3503700912440	-1014.8638266162665
-2021.7241193919322	140.3692770444485	110.3217018034102	-970.3327858844739
-1829.3029581669518	108.5081706652845	55.8457441146069	-927.7875814184642
-1746.0311944521898	87.7800211644198	19.7910928477160	-898.1109736098019
-1715.5823606946900	76.5483232198147	3.4209255481870	-880.7262516887487
-1676.7086716543045	69.4873535021965	0.0684499822199	-869.6613514019670
-1659.9616360618631	68.6250410825063	0.0570416518499	-866.7062004454374
-1732.3262491615117	78.4755442709380	7.6282391104983	-876.8375845953922
-1899.3721365180177	105.4507381261275	46.0188443683200	-907.9732785193060
-2067.5682982883810	138.3417413642098	102.9216293003117	-950.6801665640075
-2228.1338606040313	156.0549445217781	157.7366897745954	-993.0074325808803
-2364.9862247689040	160.8126116767658	196.7307563699193	-1024.7355729026285
-2446.7544492190420	164.2846780162666	220.8338047067886	-1045.5978686330160
-2465.4991227983382	166.8169339677017	236.0702200019622	-1059.2902254212172
-2457.7261159093520	168.5049734717576	241.8365409179379	-1065.6037528042498
-2427.7910504092038	169.1863261683376	229.0084635029392	-1057.9424688747488
-2299.5389937804930	167.1875080093751	186.5627868846401	-1027.5392684387289
-2083.7079386362957	150.0769794079041	129.1135822669962	-984.5408778835390
-1879.1990612982581	117.8759834618549	71.6765727611271	-940.3631020025136
-1772.3816838719465	93.0018893482553	28.9130364552780	-905.8938152663486
-1727.1488341270485	79.7273134860174	6.9260367066904	-885.5295521652164
-1677.6610705448470	71.3532056037433	0.3552318042793	-872.5480523762765
-1658.6166332503120	68.4401474523720	0.0196695351207	-866.9583638856844
-1706.3125021830203	73.7159101624382	2.8461817319610	-871.7061962731117
-1845.4909855712635	95.7213992740392	30.7485974727389	-896.5039725904433
-2006.3543446486406	128.5510335625450	84.4885211573268	-936.7584629962996
-2177.5095912825573	152.8960171813985	141.9286777888152	-980.7057119257107
-2335.0283426080155	159.5879864201530	186.6516931833855	-1016.4507647098022
-2429.8827087739355	163.3126095906030	214.5434873751983	-1040.0435853056413
-2456.4869351967495	166.1332209269071	232.2846212726380	-1055.7489223180914
-2459.3484591661045	168.0934867970332	241.3990904568541	-1064.6517473044094
-2453.5463396962095	169.1332184235118	236.3400860238178	-1062.8067449100906
-2352.6463452156000	168.5285769139024	202.4746540158574	-1039.1966151233453
-2146.4116628660754	158.2189867757543	148.2008991480945	-999.0204094672691
-1934.9499982535838	128.1277451667482	88.9782892439710	-953.7918870200976
-1806.1412937809580	99.3575095364463	40.0963473434862	-915.0299209391975
-1742.2448089414606	83.1490258156092	11.9645848232013	-890.8655036527518
-1680.8809734441008	73.5333768765184	1.2171508332671	-875.9445877009138
-1658.7295363819046	68.5585580537984	0.0350117725148	-867.6798424339105
-1691.1952842706780	70.5817664363106	0.7352472228107	-868.4851132017509
-1797.1350070399053	86.9306906379092	17.9991981982229	-886.2305743969172
-1944.8783928010932	117.7870771631094	66.1258299500740	-922.8442338519375
-2120.6492925464263	147.5313481725870	124.3547349399012	-967.0196493887483
-2297.7919456710747	158.2606861902101	174.4345515292348	-1006.4381845519763
-2409.0373288437520	162.2327521124782	207.0513614477350	-1033.5640470461901
-2444.3382435248190	165.3519469919142	227.4356874746904	-1051.4412941266646
-2456.7571946093070	167.5616225673702	239.6689581476400	-1062.8063515193878
-2468.7099777114363	168.9133130208627	240.3754878491745	-1065.2489143906730
-2399.5263218315030	169.0454922968736	216.3039107684983	-1049.0844904285061
-2207.5559863514877	163.7351112049951	166.5026147964734	-1012.7690211259151
-1994.3822854020937	138.7634561971969	107.3248514324250	-967.9936847679239
-1847.5960192198775	107.2583684037171	53.5845343571346	-925.9760172338505
-1761.6393639611438	87.2131451622421	18.6860583646367	-897.0732089368354
-1687.6866325958526	76.2446255975515	3.1109336746852	-880.0209021593216
-1658.8577817508915	69.5463621075585	0.0641226844934	-869.5248448282294
-1684.9360448045782	69.1533647958475	0.0995278477106	-867.2770103546393
-1758.0032536987367	79.8126792684411	8.9578996846556	-878.3423040321235
-1886.6125090852388	107.3386201070094	49.0231691626512	-910.2175724765744
-2061.5616156532305	139.9644780116651	106.2737114755763	-953.1805578685472
-2254.9914306391993	156.4994760155053	160.6493545352643	-995.4480284986530
-2385.0275141033550	161.0836578707287	198.6922024121525	-1026.4613779141162
-2430.2930152765530	164.5077305445350	221.9797518229189	-1046.5451534444276
-2451.1639656023940	166.9699629509405	236.8176623365476	-1059.9361729545800
-2476.2642593698810	168.6080418357899	241.9022371652409	-1065.8271987232206
-2437.8099248182684	169.2307793177103	227.5104317081489	-1056.8712659920770
-2266.5571172901530	166.9459661180932	184.0352516216340	-1025.7497341334504
-2056.8727918711650	148.9160834450821	126.4251502067030	-982.5939872972950
-1897.0113989128350	116.5286203060890	69.3012796999550	-938.4083436022214
-1786.9992955922240	92.2292700087154	27.5098118197694	-904.5881515250387
-1698.4997628330902	79.3598865699633	6.4401991892098	-884.8529201570653
-1659.8373245999007	71.1628045037752	0.3320217528369	-872.1404996085762
-1683.2342366259380	68.5975037333374	0.0169158002038	-867.0960506315291
-1728.8726721850242	74.4779079530129	3.4213189388894	-872.4906173337241
-1829.7828948238962	97.1745845287543	32.9555193132781	-898.1577871033891
-1998.5109208239223	130.1336443583541	87.3134597913575	-938.8505147517341
-2203.6551241463570	153.5022322538176	144.4298558747596	-982.6636174516220
-2354.5007889867770	159.8027777436707	188.2378444955163	-1017.7355787438843
-2412.8583327362935	163.5069445975953	215.4376644417840	-1040.8409882594333
-2441.8826987603543	166.2512381376312	232.8872958287353	-1056.3331075111753
-2477.8637859658940	168.1481681046686	241.5918519010367	-1064.9861294014609
-2465.1446777754636	169.1678368053242	235.3208107138646	-1062.1033623341755
-2321.2600614142493	168.4262953312749	200.1044750338167	-1037.3799368596000
-2119.2492150365370	157.1721741166322	145.2457481915651	-996.7572327562847
-1951.0499061405544	126.6725929585210	86.3465054448253	-951.8052639729099
-1818.7510393561172	98.4157321948686	38.2780955169315	-913.6192218803432
-1712.9084840903859	82.8240850954157	11.2643493729054	-890.1896584260055
-1662.6921609273150	73.4842030387167	1.1117221250203	-875.7246822982646
-1683.2657078821310	68.7989197729730	0.0267505677641	-867.8521475615677
-1712.0044722562400	71.2442363791748	0.9327293554222	-869.2254745036928
-1780.0343132059945	88.2851348263186	19.8032879594908	-887.8910765518041
-1937.3516484918175	119.6190976642487	69.1274010094882	-925.2321154155869
-2148.6488757907005	148.5938964598055	127.2288474117336	-969.2769252391963
-2319.1916131009593	158.5077355513257	176.4620872094735	-1008.0148944872491
-2393.2580343792474	162.4620988919853	208.2240591316293	-1034.5251005321861
-2430.5888450847674	165.5030090216409	228.1835231999782	-1052.0121040358667
-2476.0203571343850	167.6639041499977	239.9376439973883	-1063.0333379546807
-2482.3366382523345	168.9939581148574	239.9199414157797	-1064.9995046853426
-2370.3583682010612	169.0466724689808	214.4309776343080	-1047.7442083053836
-2181.1818934895864	163.1190613650157	163.7984471080836	-1010.6132400766896
-2009.4609510255993	137.1985479829965	104.5392518686356	-965.7084781776043
-1859.0373944088690	105.9483773646804	51.3658107955230	-924.1215734626737
-1731.2869109257354	86.6006358385844	17.6014801980829	-896.0972066041478
-1668.8487254200847	75.9712190593742	2.7793053125507	-879.5968269821199
-1683.8058333165445	69.4979750511616	0.0586152146596	-869.2931377045080
-1704.2531018558861	69.3536006633759	0.1329660574157	-867.3950275653633
-1737.5555917686930	80.7166911025871	9.9582922408929	-879.2994236110953
-1877.1286460314568	108.7839375476763	51.3492883860217	-911.9311823762872
-2088.8770924660080	141.1501575887391	108.8217030551080	-955.1518386783406
-2276.4025063994536	156.7917653073985	162.5958517308058	-996.9464536841457
-2369.2946397417350	161.2728787985896	199.7720598902774	-1027.3791584228466
-2416.5341754596443	164.6391230391410	222.7881697163784	-1047.3028239372757
-2470.5416048218726	167.0537551705545	237.3731300083554	-1060.5321598687362
-2490.7976854798417	168.6595760178060	241.8837478022275	-1065.9412820269206
-2410.8721030798080	169.2441546015924	226.0993392585920	-1055.9778757068962
-2241.0488773642633	166.6296799933529	181.5199114704027	-1023.8697199666165
-2071.8000020742420	147.5262340934555	123.6171273728761	-980.4547286575709
-1906.7663081605801	115.0317686834059	66.7288978968737	-936.3973303314840
-1754.7967260833652	91.3370598956418	25.8984835026841	-903.3249739795891
-1678.2625649288375	78.8575266429814	5.7293421899488	-884.1109852923138
-1684.5237713484490	70.9299172079464	0.2399683284722	-871.7506494224846
-1702.2656920272934	68.4460483129082	0.0192761444183	-866.7730768648477
-1706.1091191898724	74.8964756603808	3.8961415167024	-872.9209867621645
-1819.6334147016305	98.5396502661288	35.0302618778064	-899.7392177270909
-2026.8677028259874	131.5931238643079	89.9078714737739	-940.8127475753721
-2226.7310293592250	154.0482585487674	146.7732842890363	-984.4063382633135
-2339.8934054247625	160.0163888950811	189.7189604901028	-1018.9566634841756
-2399.5625137761253	163.6764959903354	216.2972231265572	-1041.5368964120025
-2461.4070727118337	166.3720090832721	233.4057847745162	-1056.8134375588224
-2492.9294696962197	168.2366810127116	241.6394521760288	-1065.1584345291178
-2440.1671219071295	169.2103230011848	234.2940609805656	-1061.5368797227002
-2296.1696024143220	168.2870350226205	197.6658460695560	-1035.6147927778711
-2133.5025469663797	156.0285873447165	142.3248222261455	-994.4968097802173
-1960.0546193187972	124.9381333515803	83.4594110798134	-949.4716703261935
-1785.5280143651978	97.2335931341163	36.3040609722210	-911.9795694326840
-1691.8058266408236	82.0711352909965	10.1959002251506	-889.1133414642024
-1686.9328960100288	72.8768077941904	0.9008647085267	-874.8202770734164
-1702.2786739204730	68.4822402575302	0.0271439584665	-867.3891267048272
-1687.4144062297826	71.2465967233892	1.1258841903072	-869.1452228004005
-1768.6609946085210	89.3586980532048	21.4102889788495	-889.0405641842560
-1966.1612231923605	121.1411262918861	71.6580833981137	-927.0688566051550
-2172.7940169327276	149.4668304284609	129.7689711772169	-971.2600077700624
-2305.3415066410907	158.7181995771169	178.1430456808860	-1009.4924699655139
-2380.1970696684207	162.6233890799748	209.2704784000490	-1035.4889077530988
-2450.1203000688910	165.6033236507563	228.8821850874644	-1052.7308288491760
-2491.1603917074670	167.7268466623838	240.1705312932171	-1063.4310559548205
-2458.9645098405490	169.0140210406806	239.2759608359290	-1064.6623688533746
-2346.0125978008027	168.9723216262247	212.1796026443961	-1046.0298116242661
-2194.8884123430744	162.3680785141085	160.9648538785998	-1008.5137138979093
-2018.3885596261690	135.5962676520667	101.6907097924602	-963.6006907940734
-1824.9028831604580	104.6690708004321	49.1805254436166	-922.3989155768055
-1709.8498713791216	85.8661753971786	16.3678069553145	-895.0181359074277
-1692.6347008508085	75.4543036764030	2.4260404617835	-878.8383697078667
-1702.6468876179322	69.1832624892309	0.0440597586703	-868.8525401178050
-1678.8880561456747	69.3048202162767	0.1970887419091	-867.2836979965804
-1725.4470259484083	81.6183425925186	11.1805571532914	-880.2726722088662
-1906.3583620021775	110.2862966401930	53.7784759734244	-913.6939661138017
-2114.0619652345140	142.3728158918399	111.4645017939212	-957.1498700558984
-2263.3989767311780	157.1084448228413	164.6029310945190	-998.6360667510112
-2356.7663260419760	161.4420368006273	200.9730817047455	-1028.3760104627622
-2436.1903352964323	164.7461253101975	223.5560683674894	-1047.9806361175342
-2485.8850223881030	167.1379407808710	237.6268670114120	-1060.8075333604256
-2468.5109220160152	168.7209449673825	241.4199401640821	-1065.6541068141587
-2387.9610285712510	169.2103230011848	224.3365555210776	-1054.7571843573076
-2254.0004794598200	166.1863286717330	178.6772702547634	-1021.7253472477612
-2078.9601062488680	145.9133322135606	120.4369569345661	-977.9665324648060
-1871.4354957861296	113.5246889024602	64.1785459731276	-934.3922179212830
-1732.7294746314853	90.4979575273940	24.4468718107786	-902.0763518901291
-1701.7660858352285	78.3071730503050	5.1463371689722	-883.2435587934922
-1703.2767061324960	70.5054486400424	0.1852870208367	-871.1578096339475
-1676.2613864256605	68.4393606709672	0.0133752838821	-866.7258699805581
-1692.7912703503694	75.7088274608645	4.6758418888857	-873.7793652748304
-1850.0130116955056	100.1324892202007	37.5196382426784	-901.5204908276189
-2053.7834946851120	133.2028786185835	92.8681365094348	-942.9240754752249
-2215.4706138933440	154.6143477695403	149.2803632355169	-986.4417417576005
-2328.7974272724900	160.2370810791351	191.3739551751560	-1020.3941131107941
-2419.9185156725066	163.8287381921694	217.3715731348483	-1042.5018838050228
-2477.5176021477700	166.4813716985430	234.0151469725545	-1057.3956557983943
-2471.8799199914840	168.3145723717895	241.6335513154926	-1065.2512747348871
-2419.4932603231973	169.2170106431259	233.1717173065802	-1060.7544256155998
-2309.8462235744264	168.0864057643897	195.3086489806949	-1033.8437478356060
-2141.1201645279120	154.8889344798248	139.4979166386028	-992.3784008477211
-1924.7603922796718	123.4212188030742	80.8917499651611	-947.5232061771400
-1762.7266958626146	96.3083382020400	34.6612613989426	-910.6416476537760
-1715.3034466866786	81.6454865509852	9.5279228124527	-888.3800611949039
-1705.4674989542364	72.6329055586941	0.7663250883013	-874.3493884026274
-1675.9403796124911	68.5420356442971	0.0173091909062	-867.3411330391326
-1672.4403825331190	71.8622531726662	1.4232875613317	-869.7006904722083
-1798.3761547060194	90.7147158044238	23.3009246946483	-890.5460704023922
-1992.6163545389597	122.6698425614646	74.2733447877580	-928.9783750746698
-2160.9466625388460	150.2654135543601	132.1572461315687	-973.0503288567459
-2294.4032781604860	158.9573811241842	179.9184179208777	-1010.9543098156821
-2400.4905224431180	162.7831057051546	210.2264178069136	-1036.3468928750624
-2466.1124189034010	165.7260615499093	229.3243562369771	-1053.0907813418844
-2470.5081666121678	167.8251943379872	240.2094769727560	-1063.5097340953032
-2439.5687746487590	169.0635882691846	238.4958670730432	-1064.1356187028430
-2360.0236010579590	168.8979707834686	210.0548994606614	-1044.4668703635778
-2202.1854164821407	161.5773632022575	158.0451080852876	-1006.3111193550967
-1982.1140029566288	133.8948528641287	98.7088082681666	-961.2741781800006
-1800.2829194406172	103.4719828929880	47.0613297297156	-920.7018280865941
-1732.1134247915056	85.3343111675156	15.4205221439030	-894.1318266548903
-1710.3034508590044	75.0294417177965	2.0912649740297	-878.1125638619140
-1676.2015910388934	69.0554105109466	0.0267505677641	-868.5512028397562
-1662.2881486759363	69.5864879592047	0.2608180357001	-867.4988827108003
-1753.9481823382596	82.6926926008096	12.4464884336577	-881.4642526464762
-1933.2300941026324	111.9129671946725	56.4118333353798	-915.6573791095469
-2102.6017072918066	143.5962609763456	114.1289370213672	-959.1943215363408
-2253.7990634201838	157.4428269198927	166.6733463613208	-1000.1482606110883
-2377.9976222512273	161.6540743892282	202.1859052402860	-1029.3980395076321
-2452.8059783942670	164.9078088888894	224.2098837149004	-1048.6104546320980
-2466.1871631368595	167.2646125870481	237.8448054605490	-1061.0459281260880
-2450.6616056754115	168.7988363264604	241.0906721461621	-1065.4629189327860
-2402.9216769840327	169.2004882336245	222.6359275145444	-1053.5420004775522
-2261.6574360915943	165.7878238901882	176.0183424971512	-1019.7367572470614
-2043.1214264776022	144.4412642051296	117.5412079741011	-975.7958025688889
-1845.9622676327547	112.0514407219220	61.6883828268508	-932.4111023439291
-1754.2149012344955	89.7540557091303	23.1128839388947	-900.9111286295805
-1719.0080069313058	77.8846714359130	4.6612864328964	-882.5275877150998
-1676.5225978520630	70.3189814470984	0.1546025460485	-870.7537973825689
-1658.8687966905588	68.6679206690694	0.0192761444183	-866.8820460894162
-1720.2625298813018	76.5518637361364	5.4114825023988	-874.6373503967941
-1876.5594096850643	101.6258003265620	39.8677873453840	-903.3568386264847
-2041.6898777115200	134.7158592600655	95.6509823383072	-945.1785975907561
-2206.5099604737710	155.1391309665598	151.7146649020511	-988.3902059066542
-2350.8721531477154	160.4561997003793	192.8857556445307	-1021.5727116552248
-2437.0022937062135	164.0120582594941	218.1882522330585	-1043.2453922325840
-2458.5058162815350	166.6163047094708	234.3511026324156	-1057.7339718024698
-2454.9597924899810	168.3967910285939	241.4364625735834	-1065.1419121196166
-2435.2871102436910	169.2248784571741	231.8845429282835	-1059.8472666558346
-2317.7061698086463	167.9156741995423	192.7649846988898	-1032.1195163869281
-2105.5863625510170	153.6682431302360	136.5124745979875	-990.2265537055198
-1898.1124994888899	121.7756654948790	78.0687782846425	-945.2446872287614
-1782.7439883642182	95.3071588643978	32.8591385911868	-908.9732776848409
-1731.3636221127060	81.0463525112096	8.6864600999904	-887.4123200669669
-1678.1205508852659	72.1978154418248	0.5987406490732	-873.7722842421871
-1658.3896468150194	68.4570632525758	0.0208497072279	-867.0681198916577
-1698.4183309576904	72.3126855269296	1.7352463883455	-870.1401078868040
-1824.0633874015075	92.0711269463452	25.2556830949406	-892.1003570676276
-1979.7308420814088	124.2992668508609	76.9944282763515	-931.0385621832087
-2152.7008000255587	151.1222185042165	134.8964255924732	-975.2364009900570
-2317.7990100144160	159.1749261826189	181.8133809344031	-1012.4975815412498
-2418.4000275611910	162.9778341028492	211.3999022722128	-1037.3622342779915
-2447.9955968851564	165.8897120821132	230.1245129256860	-1053.9263431938105
-2454.6084945927255	167.9353437346630	240.4545593803595	-1063.8390021132232
-2456.5420098950876	169.1037141208308	237.8774568888494	-1063.8134317175661
-2368.3556161350750	168.8495837270717	207.8884968624707	-1043.0844954352970
-2167.3506697834337	160.6945944660418	155.1056927568546	-1004.1683201990510
-1955.2627271727000	132.3228636172847	95.8822960713262	-959.1809462524589
-1819.4359325690189	102.2918107857478	44.9881607279969	-919.0456532294337
-1747.7412638355809	84.6478443918043	14.3017189862393	-893.0480352697415
-1682.2775104376683	74.5302289164339	1.7970087286244	-877.3301097548139
-1658.5328410306980	68.8516341270964	0.0255703956569	-868.1806287980829
-1687.0690091930637	69.8787772510978	0.3737211672927	-867.6377496287524
-1779.4969415064980	83.9653115231170	14.0633242205768	-882.8057149417059
-1920.3811669804054	113.7060420162728	59.2812251187831	-917.7604458046490
-2095.7732314793147	144.8830419639399	117.2308227098969	-961.5314556993790
-2279.2762254805834	157.7646205144668	169.1048942929380	-1002.1541598026943
-2397.0861193044330	161.9066312201775	203.7220959332103	-1030.7682193241380
-2435.6081170568605	165.1261407287288	225.0592142414110	-1049.2713510121525
-2451.1655391652034	167.4298366820617	238.2633731679169	-1061.4353849214772
-2468.6592303108246	168.8767276855382	240.8597518038453	-1065.4223996904370
-2412.1931090585120	169.2185842059355	220.7354570311853	-1052.1403494048536
-2227.9808316207920	165.3338510196032	173.2768026920322	-1017.7882930980078
-2016.1489863573297	142.9629019454600	114.6804707861508	-973.6699192130469
-1864.0775160881897	110.7792151903170	59.4181250832230	-930.5806554055994
-1768.9843617659046	89.0321837702017	21.7773225042012	-899.7620343878310
-1689.9572837301830	77.3937198393011	4.1549925988904	-881.7766048641924
-1658.8070343502798	70.0239384202884	0.1140833036999	-870.2648127394691
-1683.6858491523083	68.6730347482008	0.0409126330510	-866.7089541803543
-1743.6169557114783	77.3701163971563	6.2855966431614	-875.5169720073905
-1861.7596580695700	103.1970027920011	42.3217585470389	-905.1605349970501
-2034.3468468602714	136.2492962180729	98.5475180801771	-947.3092016350271
-2232.6928654543003	155.6115932001583	154.1765039177541	-990.3095591437290
-2370.4649770814150	160.6875134333984	194.4766276450905	-1022.9948190444492
-2420.3028583887650	164.2162280340466	219.3046950465077	-1044.3158083338510
-2444.2214064862020	166.7838891486989	235.1669949492210	-1058.5742543428248
-2473.7355439347675	168.5128412858058	241.7126228466776	-1065.5360896034347
-2446.2351734918560	169.2897879230723	230.7433165005823	-1059.1556858009915
-2285.1168972393148	167.7252730995742	190.2315485753475	-1030.2686131320731
-2078.3409092832690	152.3421230724004	133.5112969292756	-987.8650293189322
-1914.8390787648057	120.2386880205498	75.4456490809499	-943.1616834594824
-1796.4501138270036	94.3925254812867	31.2308944738978	-907.7372440978579
-1701.8730881062852	80.5373049422866	7.9401979375122	-886.5940674059470
-1660.0320529975954	71.9208683873258	0.4988194106602	-873.2258645565348
-1683.0741266100556	68.4499822199323	0.0051140791314	-867.0095046769982
-1720.1803112244977	72.8547779148552	2.1553876585230	-870.6908548701828
-1808.2349190992020	93.5447685175858	27.4271997722625	-893.7541715805735
-1972.6250258237155	126.0868342026274	80.0569748946398	-933.2899371731206
-2179.9077010044693	151.9660415608932	137.7819463946755	-977.4759742588966
-2338.4429739049638	159.4502996743083	183.7213258411081	-1014.0841262440831
-2402.4397733735764	163.2229165104528	212.4817267038496	-1038.2583782980894
-2434.3244831948855	166.0765726657596	230.8530725065556	-1054.5593088339936
-2473.8464801128484	168.0683097920787	240.7787133191482	-1064.1899066197761
-2469.1541158144614	169.1985212801124	237.0808407164622	-1063.3094982277748
-2337.5865623458103	168.8236199407124	205.5667049368268	-1041.3984228847530
-2140.7192994021534	159.8354291719710	152.2799673414191	-1002.0632865504368
-1971.3622416689684	130.7186163328428	93.0990568517514	-956.9256373555228
-1831.6613354279202	101.2186409495641	43.0452040487771	-917.4233099726808
-1717.4116274609120	84.0986709712352	13.3280769977661	-892.1377291843569
-1663.6032537941041	74.2245643406587	1.5338303487099	-876.8124075904377
-1683.4726313916003	68.7450252467424	0.0350117725148	-867.8450665289241
-1707.4608096433650	70.0683915696611	0.4992128013626	-867.8124151006240
-1760.7420397689390	85.0439888291346	15.4516000093937	-883.9858870489461
-1911.8493094264638	115.3342861335619	61.9291379367278	-919.6994685768447
-2123.3806041932826	146.0372502848208	119.9644947009676	-963.6144594686579
-2300.2970576640437	158.0435345224779	171.0765684934340	-1003.7462119753613
-2380.8296419179014	162.1229961065049	204.7854310018338	-1031.7158975262519
-2421.3811423040797	165.2834970096942	225.8137376086399	-1050.0844895940410
-2469.9043118839630	167.5277909669627	238.6516497911989	-1061.9463994439125
-2481.8610288931163	168.9526520911040	240.3943706028903	-1065.2001339435735
-2382.7368000432010	169.2370735689489	218.8011549474186	-1050.8728445616773
-2201.0083915005200	164.7984462736185	170.3535163823982	-1015.5778307411467
-2030.7241118817462	141.2705351436776	111.5321649947363	-971.1474980291721
-1874.1664140422838	109.2206012273552	56.7666717489567	-928.3953700536930
-1737.3805329061190	88.1305322802701	20.2206754947514	-898.2773778769227
-1670.7653249222428	76.8484803257561	3.5967711921658	-880.8222390201377
-1683.9435200623890	69.7501384914086	0.1085758338661	-869.6715795602297
-1702.8038505081950	68.7930189124368	0.0637292937910	-866.7301972782847
-1722.5630787090156	78.1478498158276	7.0546754663796	-876.2526126209036
-1852.3635211424257	104.6682840190272	44.5990973233101	-906.8226107147468
-2062.3436763696280	137.6552745884984	101.1922837725024	-949.2946445101074
-2254.6712106074347	156.0419626285985	156.2909789432262	-991.9283618841602
-2354.8198288464337	160.9298421060851	195.6544394081163	-1023.8921432366541
-2406.0758836359837	164.3908935059182	219.8330187598489	-1044.6584516356530
-2462.3472764906014	166.8873509034337	235.2897328483740	-1058.6214612271144
-2487.2445806556434	168.5911260355861	241.2330795804357	-1065.1135879890426
-2418.9185165069720	169.3224393513726	229.0584241221456	-1057.9566309400357
-2258.7742756336065	167.5136289016758	187.3499616801693	-1028.1167659898717
-2092.2944774978730	151.0104955447311	130.4314411200810	-985.5770689936958
-1924.2088585148879	118.6745665877541	72.7261391551660	-941.0672713598336
-1763.8903455603531	93.4350125116125	29.4866000993967	-906.2844522338453
-1682.1111061705478	80.0164556522913	7.1962961192484	-885.7486707864607
-1684.9427324465191	71.6336931745640	0.4071593769979	-872.7046218758371
-1702.0961406345534	68.4523425641468	0.0133752838821	-866.8289383445905
-1697.3262783677910	73.4248010426522	2.5428775004002	-871.2549771374437
-1798.3580587337087	94.9731701580489	29.5023357274933	-895.4327697077715
-2001.8020274403127	127.7622852042061	82.8402141142147	-935.4201478266892
-2204.1606311989585	152.6808324671784	140.2060199029469	-979.2702292526042
-2324.4355111641303	159.6855473143514	185.3125912323703	-1015.3520244779615
-2388.9728294578586	163.4255127221957	213.4384528921190	-1039.1269849690182
-2452.9865447266748	166.2044246440440	231.4006723643151	-1055.0939267985732
-2488.3732185808680	168.1587896536338	240.7413412024189	-1064.2194109224572
-2444.4853716475210	169.2594968389865	236.1441774540159	-1062.6686647735432
-2312.5673070630200	168.7583170841118	203.1603340101640	-1039.5309972203966
-2154.0371482416563	158.8358233971385	149.2339431326322	-999.6907472241816
-1979.5428013256550	129.0526067081221	90.1848185282729	-954.6868508680881
-1797.9737160174507	100.0034570698091	40.9511853398306	-915.7384175942441
-1697.1661683519087	83.5447768622371	12.3929872981295	-891.1947716706718
-1688.2708177889367	73.9015905739773	1.3493301092780	-876.2057991273164
-1702.2479894456849	68.7922321310320	0.0161290187989	-867.8588352035086
-1682.9761723251547	70.5550158685465	0.6392598914218	-868.3352313441314
-1750.4265487702544	86.3933189384125	17.1951076024899	-885.5586630771951
-1942.0432260087996	117.1651264625938	64.8976641771393	-921.9823148229498
-2149.3215738918275	147.2839054207689	123.0762151570577	-966.0377461955245
-2288.1369576617430	158.3661148984569	173.3578411767293	-1005.5884606347634
-2369.1176139256490	162.3700454676205	206.2555320567527	-1032.9342285316260
-2441.8925335279146	165.4491144954102	226.8495353280944	-1050.9833873490556
-2486.1281378421950	167.6560363359494	239.2200993561863	-1062.4991133808032
-2460.0007009507060	169.0513931574098	240.1713180746219	-1065.1336509148660
-2360.1628613666130	169.2449413829972	217.0395513820114	-1049.6305167234560
-2215.3392213987370	164.2716961230869	167.8653201896334	-1013.7804286218201
-2039.3169449945620	139.8653435546569	108.8909398187327	-969.1813312985100
-1840.2608561826773	108.0730805484152	54.7481840548735	-926.7883690343342
-1716.6834612707448	87.6395806836582	19.2769311996616	-897.4662062485464
-1694.9258083016643	76.5912028063778	3.3225778725836	-880.4205871129736
-1702.5615218355085	69.7521054449207	0.0708103264344	-869.6688258253129
-1677.0351859373077	69.0766536088769	0.0885129080430	-866.9811805464243
-1710.4706419075300	79.2658661920865	8.2671056112177	-877.5535556737846
-1882.7061394102736	106.4668663104613	47.3996457337911	-908.9925538292591
-2088.7791381811066	139.2028736117928	104.2709594095897	-951.6955079669366
-2243.1877426132850	156.5014429690174	158.8590334485809	-994.0349690955840
-2343.6396650838446	161.1737443415814	197.3330375353142	-1025.3889948593370
-2426.7430575779745	164.5757871360525	220.9868336900274	-1045.7583720396008
-2479.2862867458202	167.0490344821256	235.9978361127181	-1059.3122553005524
-2466.5412147690313	168.7158308882511	241.3408686328970	-1065.4593784164642
-2397.6616499020640	169.3830215195443	227.7500066459187	-1057.1187087438952
-2272.5752082556733	167.2457298333323	184.9266749533027	-1026.3484747825235
-2100.0273585352134	149.6536910121073	127.5459203178788	-983.3807687021218
-1888.8272987398263	117.3032065991410	70.2631199673557	-939.1951250070482
-1741.4835979322909	92.6246276646409	27.9618177368424	-904.9492841898541
-1705.1413780619355	79.5727109399689	6.5668709953870	-884.9473339256446
-1703.4214739109840	71.2989176868102	0.3233671573838	-872.2089495907962
-1675.7672877034292	68.5101709974016	0.0137686745845	-866.8100555908745
-1682.7857712251866	74.1152017253878	3.0794624184921	-871.9241347222487
-1828.0291590725374	96.4845772367212	31.7336477915821	-897.1483465609963
-2028.4215961005204	129.3468629535273	85.6321079292426	-937.4964639540270
-2193.4922687402086	153.3897225129273	142.8350499671757	-981.3788034175400
-2313.3359924955357	159.9577736804216	187.0407565880724	-1016.8473025378349
-2409.6706878746377	163.6190609477831	214.6170514365496	-1040.1950407260706
-2470.2170574923816	166.3724024739745	232.1662106712115	-1055.7737059323438
-2468.4184752009483	168.2941160552640	241.0355974478242	-1064.5986395595837
-2425.0341683666900	169.3432890586005	235.3652638632374	-1062.2398689079125
-2326.6003401995113	168.6686240039615	201.0427118590726	-1038.1722257342606
-2162.0930030456784	157.8846046787029	146.5510185421727	-997.7123853817445
-1944.0239481954510	127.4837645868974	87.4865517004194	-952.5845709543909
-1774.2719261970430	98.9137648241240	39.0117691769325	-914.1766565056629
-1719.5461654122073	82.9731801716304	11.4594711613025	-890.2726638642149
-1706.2302835262158	73.4397498893440	1.1581422279051	-875.4689783416959
-1675.9419531753006	68.6226807382918	0.0251770049545	-867.5000628829077
-1666.7590340088645	70.8921517005148	0.8249403029609	-868.5909353007002
-1778.7782166931886	87.6439079813847	18.7521480026422	-886.8202670598347
-1967.7017411830116	118.6690591179203	67.3056086666117	-923.7663416583945
-2136.6626544788664	148.1599865150436	125.3197223329213	-967.8209862495643
-2276.8773289772660	158.6096237432508	174.9329775491926	-1006.9204815531350
-2389.3198000573875	162.5435307673848	207.1599372816011	-1033.7375323459544
-2457.9680511913360	165.5887681947670	227.2732171145936	-1051.4047087913405
-2465.7265026243326	167.7693328582445	239.2189191840791	-1062.6214578892536
-2441.2096072685250	169.1210233117370	239.4108938468568	-1064.6112280620610
-2373.9897577750390	169.1969477173028	214.8436444811397	-1047.9708013499737
-2222.0484998283980	163.5769681426249	164.7355037612323	-1011.3701237881331
-2002.4955752486674	138.1064937241666	105.6667096217525	-966.7257865340454
-1814.5830648640472	106.6438921265474	52.2230091360818	-924.8340040247446
-1737.6795098399532	86.8799432372979	17.8969166155954	-896.3332410255958
-1711.8081702957356	76.0766477676210	2.8072360524221	-879.5283769998998
-1676.0591836046196	69.4606029344324	0.0590086053620	-869.0157972593066
-1660.0178909323085	69.0656386692093	0.1121163501878	-866.8163498421131
-1737.7668425758889	80.0184226058033	9.1589223335889	-878.2903764594050
-1908.4409723807540	107.7890524612728	49.5424448898369	-910.4547870701297
-2076.3436646871170	140.3979945657246	106.6773303362525	-953.4335080901990
-2233.0256739885417	156.8492003499508	160.7036424521974	-995.4551095312963
-2364.6900015699860	161.3637520508470	198.4258769066187	-1026.3040216331508
-2443.1962303157130	164.7260623843744	221.5796734785644	-1046.3213141347542
-2459.4920467724855	167.1666583021472	236.1693544589704	-1059.5463227684882
-2448.7752972573394	168.7831006983638	240.8518839897971	-1065.0085526714984
-2412.5440135650647	169.3515502633512	226.0639340953748	-1055.8610386682792
-2280.0527787271476	166.8987592338036	182.2181799671864	-1024.3642120795500
-2063.8696389042902	148.1529054824001	124.4755058855421	-981.0039020781400
-1862.6133158938069	115.6301159417768	67.5125321760812	-936.9787617896511
-1761.8010475398360	91.6930784813259	26.3457687313281	-903.6569957324260
-1721.3746453970246	79.0137027518395	5.8914191593431	-884.0826611617400
-1676.5068622239664	70.8925450912172	0.2604246449977	-871.5421523502055
-1658.3857129079954	68.3764181585810	0.0118017210724	-866.5232737688151
-1708.9612017823697	74.6037929777852	3.5810355640692	-872.3147716897454
-1853.2478634414510	97.7646705823744	33.6923400988984	-898.5732076851377
-2015.1702302897250	130.8216846968752	88.1895408856321	-939.4701051080352
-2183.4454635912734	153.9868895991909	145.0482660589535	-983.1140498058854
-2335.6066269405633	160.1446342640679	188.3700237715272	-1017.8138634936647
-2426.7013581635188	163.7815313078798	215.2567047186738	-1040.6950403088379
-2451.0510624708010	166.5104826105216	232.4179807207561	-1056.0160346050304
-2451.5640439467484	168.3948240750818	240.7861877424941	-1064.4550519532027
-2440.9546900933606	169.3456494028150	234.1634552673644	-1061.3818837859492
-2334.3489568649480	168.5128412858058	198.3357904357660	-1036.1254139096038
-2126.7665179689548	156.7256756693930	143.3614067270049	-995.3654164511462
-1916.5743251531510	125.8216888692008	84.5668059071071	-950.4311502493798
-1793.3167568822810	97.8366610809160	37.0562239952354	-912.5393644022184
-1735.1775449726040	82.4511507095278	10.5739486901699	-889.3698322021761
-1678.4407709170307	73.1561151929039	0.9268284948860	-875.0075310477652
-1658.2236359386009	68.6030112031712	0.0110149396676	-867.3179229876902
-1692.3915853967171	71.2245668440541	1.0102273237976	-868.8053332335154
-1804.1593914221992	88.8012634278850	20.4535627905801	-888.1101951730483
-1954.5668190201302	120.3275943192952	70.0522625508621	-925.7687003336788
-2128.7035737876386	149.1694270574364	128.0632290915524	-969.9071371444627
-2300.8242012052774	158.8680814347364	176.8660994608521	-1008.4724078741559
-2407.3980697867955	162.7480939326398	208.2854280812058	-1034.7170751949639
-2440.0664138873117	165.7563526339951	227.9510292948519	-1052.0117106451642
-2450.2092063676360	167.8999385714457	239.4152211445834	-1062.8185466311630
-2458.4420869877440	169.1784583542893	238.9643953996176	-1064.4440370135350
-2382.7812531925742	169.1745244472652	212.8566280432496	-1046.6399606037091
-2187.8254756719434	162.8814533807580	161.9530513230623	-1009.3465220149185
-1975.5412311007060	136.3751812428452	102.6584509203971	-964.3642621474579
-1833.1038991336702	105.2705651844221	49.9157726664272	-922.8717712011064
-1753.1515661658723	86.2001641035275	16.7427082947145	-895.1499217927361
-1683.6461166913648	75.7261366517707	2.4984243510275	-878.9107535971108
-1658.3046744232981	69.3901859987004	0.0511407913137	-868.8702426994137
-1684.9537473861867	69.3799578404376	0.1675844392281	-867.0814951755398
-1762.2086003075360	81.1620093777191	10.4150188463949	-879.5256232649831
-1894.3906300533570	109.4707977140901	52.2367778106663	-912.4752417177249
-2068.8837967972510	141.7378832981447	109.6045505529106	-955.6380695865236
-2258.5457156355040	157.1961709494795	163.1009653927047	-997.2556587762426
-2383.7517480554275	161.5793301557696	199.8739480822024	-1027.4928483358440
-2426.2922318330090	164.9030882004604	222.5076821455576	-1047.1415337492860
-2445.1549226230290	167.3051318293967	236.7547198241615	-1060.1336550871915
-2467.4287041936760	168.8739739506214	240.8774543854539	-1065.1879388317989
-2423.0117467655830	169.3932496778071	224.6013074638018	-1054.8224872139078
-2247.2609099460730	166.5679176530740	179.6469783362124	-1022.4342372935101
-2037.1686383686824	146.7221434977226	121.5805437064819	-978.8028810981369
-1880.2026009801150	114.2493145763057	65.0982934353701	-935.0700301015413
-1776.3891549574320	90.9574378678129	24.9649673658570	-902.4638417320062
-1692.6992169260045	78.6403749752492	5.3804046369081	-883.4445814424253
-1658.6630533531968	70.8311761416407	0.2120375886008	-871.3076914915671
-1682.8868726357070	68.6836562971659	0.0184893630134	-866.8057282931480
-1731.9655098873984	75.5101651561457	4.3158893961775	-873.3305064833767
-1838.5869787439083	99.4243859558566	36.2670822461942	-900.5539298717893
-2008.1013927580584	132.4865141494887	91.2210096384298	-941.7399694609605
-2210.3234899429663	154.5950716251220	147.8012141944425	-985.2356058640011
-2355.6687659822423	160.3877497181594	190.1890623794868	-1019.2792438601546
-2410.1407897640215	164.0002565384217	216.4006848812919	-1041.7001535535042
-2436.8413969089265	166.6757067055352	233.0698291146552	-1056.6191025518300
-2470.2202046180014	168.4990726112214	240.9313489116846	-1064.6698432767205
-2452.5121155395645	169.4203936362736	233.1410328317920	-1060.7036782149883
-2302.6334050456767	168.4050522333446	196.0584516594948	-1034.5054309970653
-2099.5537161295074	155.5978245255738	140.5821014144541	-993.2918540587251
-1933.4448854261498	124.2268829616169	81.8956830377201	-948.2108531249586
-1806.7506559789963	96.8799348926467	35.3457612211420	-911.0846055846935
-1705.4855949265473	81.9397427963904	9.7757589549731	-888.5114536895100
-1660.4026270392690	72.7890816675522	0.8076311120547	-874.3560760445686
-1682.9875806555247	68.5774408075143	0.0078678140483	-867.1554526275936
-1713.1142274277481	71.6537561003871	1.2891413318087	-869.1625319913067
-1786.8435128740684	90.1781308863319	22.3465588505934	-889.6802174663802
-1946.6254409105109	122.0612671448311	72.8941169850966	-927.9162201781535
-2156.1681456766300	150.1363814039685	130.8598435950093	-972.0369544073290
-2321.6573860236867	159.1237853913052	178.8358067078360	-1010.0617063119060
-2391.5672411402750	162.9719332423130	209.5537197057866	-1035.8425659945685
-2426.5731127945320	165.9428198269391	228.8046871190890	-1052.7650538402859
-2469.7111570490790	168.0207095170867	239.8507046521550	-1063.2182315848150
-2472.0935311428940	169.2665778716299	238.5757253856332	-1064.2528491321623
-2352.8398934411875	169.1686235867290	210.8318460979278	-1045.2477509078683
-2161.4981963036294	162.1473863300546	159.2181991598844	-1007.3001035809639
-1991.5258755118696	134.9105876577601	100.0117182745598	-962.2655227500824
-1722.8160289306675	85.7359630746797	15.8477444467240	-894.3902843463760
-1664.9301606333445	75.3838867406710	2.2246244221478	-878.3808563209601
-1683.1425765922756	69.3453394586252	0.0314712561931	-868.7038384322927
-1704.4218664672217	69.6875893697249	0.2301335609118	-867.3364123507038
-1743.1917003621697	82.2800257539780	11.7387785600160	-880.6821919300785
-1885.9386308120050	111.1222518828215	54.8878377542302	-914.3556492752609
-2096.9596978377936	143.1202582264254	112.4877110108985	-957.8918049206500
-2280.2117085709224	157.5423547676033	165.3078872332439	-999.1600631666258
-2368.3465681489190	161.8192984842418	201.2748123734966	-1028.7178669831594
-2412.6427546313707	165.1009637237744	223.3176736018269	-1047.8036103014480
-2464.3122630491566	167.4318036355738	237.2035786156152	-1060.5781865809186
-2481.5766074152716	168.9687811099030	240.7555032677058	-1065.2587491582333
-2394.9637764649124	169.4314085759412	222.9498532950703	-1053.7548248475582
-2221.2042833810190	166.2288148675936	176.9628735736458	-1020.4664970000383
-2052.1206321860113	145.3759605140639	118.8244484453736	-976.7698379480646
-1890.7844174843330	112.9271284254942	62.7945974820372	-933.2643667774638
-1744.4800549125737	90.1112544669216	23.4657553989596	-901.1404754090876
-1672.7251974016660	78.0377004191518	4.6994453310305	-882.4807742215124
-1683.6181859514932	70.4617822720745	0.1538157646436	-870.6707919443597
-1701.8475177106282	68.6006508589567	0.0184893630134	-866.5630062297590
-1709.5017206074858	76.1281819496372	4.8988944171541	-873.9422290256296
-1828.0712518776954	100.7760764093490	38.2352159303684	-901.9551875537858
-2035.9314246095923	133.8972132083432	93.7335960547442	-943.5479931292525
-2232.6846042495495	155.0667470773157	149.9554216808583	-986.9421347310703
-2340.5751515120446	160.6029344323795	191.5002335906307	-1020.4708242977647
-2396.5349789303514	164.1784625266149	217.1268841179471	-1042.4251726180520
-2456.1710424627113	166.7850693208062	233.6166421910098	-1057.1942397587586
-2484.9829775074690	168.5773573610016	240.8998776554915	-1064.7052484399376
-2426.7155202288054	169.4522582831691	231.9553532547180	-1059.9511218012717
-2277.1251651197863	168.2453356081647	193.4549919909229	-1032.5982728717652
-2113.4907619346095	154.3834274272236	137.5305697358334	-990.8917773833008
-1942.6525882068381	122.6757434220008	79.1954492563545	-946.1447651558834
-1773.6539094035518	95.8284015450956	33.4543387239383	-909.5051419145037
-1685.2141720311845	81.3815213896658	8.8898430931381	-887.5932797900771
-1684.9309307254468	72.5691762649031	0.6341458122904	-873.9622919514526
-1701.7165186067245	68.6608396364259	0.0102281582627	-867.1428641251163
-1689.2019735815493	72.1816864230259	1.5515329303185	-869.7789752219886
-1776.1779041502360	91.4755334228913	24.1030483368693	-891.0783280227574
-1975.4928440443090	123.5931305400289	75.4779071185478	-929.7643696980916
-2180.2511310876766	150.8979858038408	133.3614150716561	-974.0133492962538
-2307.9099545371473	159.3578528592411	180.5824614265515	-1011.5215792085622
-2378.4732316104450	163.1757096261632	210.4577315399327	-1036.5931554547733
-2446.0396583127567	166.0773594471645	229.4329320708432	-1053.3484522519650
-2484.7323876300320	168.1261382253334	239.9820971467611	-1063.4428576758930
-2448.3063755400630	169.3358146352547	237.8034994367956	-1063.7646512704670
-2328.8552557057446	169.1465937073938	208.6516748251527	-1043.6356358093780
-2174.6807187415025	161.3645388322519	156.3531346742075	-1005.1576978156206
-1999.6592282842666	133.2662145216721	97.0974799510813	-960.1286244545727
-1811.4194168352385	102.9770973893520	45.7946116679444	-919.6849131208554
-1701.4513732732978	85.0668054898745	14.6439688973390	-893.3902851808411
-1688.8085828791359	75.0046581035445	1.8922092786085	-877.7557584948252
-1702.0048739915935	69.1238604931665	0.0247836142520	-868.3084807763673
-1678.9506052673582	69.8709094370496	0.3103852642042	-867.4733123151435
-1730.8773912045230	83.3571294971859	13.0220190312885	-881.9068171866913
-1915.3925794831014	112.7874747261375	57.5070330508987	-916.3768907042612
-2122.4164035816670	144.3818622090652	115.3476614174439	-960.1105284822617
-2267.7557787604070	157.8680822692015	167.4581608126355	-1000.9137989179849
-2356.1746664255460	162.0486452637488	202.4923565974660	-1029.8000848054987
-2432.7127614870980	165.2681547723001	224.1607098770988	-1048.6065207250740
-2480.3008413673450	167.5746044605499	237.5977560994334	-1060.9896732556430
-2460.2693868004544	169.0639816598870	240.4876041993623	-1065.1879388317989
-2372.3587599228335	169.4672071298608	221.2138201253200	-1052.5160375256582
-2234.7601335954823	165.7587129782096	174.2370693966233	-1018.3244846253973
-2059.6957635516837	143.7583379457400	115.7678026876214	-974.3634670214017
-1855.3938097231162	111.4247693329774	60.2257561952777	-931.1439908914555
-1722.9285386715576	89.4538986031888	22.2096588861536	-900.0818610288932
-1696.6960664625246	77.8382513330282	4.3729310480274	-882.0645668583592
-1702.2350075525055	70.4130018249752	0.1341462295230	-870.5291712914909
-1675.7228345540561	68.8756309599436	0.0247836142520	-866.8037613396360
-1696.4018102171194	77.0601245236545	5.7749755114288	-874.8977750417918
-1858.6042712455117	102.5007012487294	40.9492183863185	-904.0665154536384
-2062.7142504113017	135.6029552940077	96.8744274228129	-945.9866220935132
-2221.4721824493620	155.6285090003620	152.6060882337198	-989.0703784311268
-2329.6711480225500	160.8594251703531	193.2866207702900	-1022.0317986049412
-2417.6069519051252	164.3554883427010	218.4105179799220	-1043.5093573939034
-2473.1442777090406	166.9329842249136	234.4128649726945	-1057.9334208885932
-2464.8138361947335	168.7059961206908	241.2318994083284	-1065.1812511898580
-2406.6832788805100	169.5258223445204	230.8955587024162	-1059.2115472807345
-2291.0535563294357	168.0875859364970	191.0490144549625	-1030.7277000817894
-2121.1245085149417	153.1894866453989	134.7095650088268	-988.7855635625796
-1906.8595417570518	121.1572553106851	76.5451760941954	-944.0357976002452
-1750.8706868732795	94.9259632737593	31.8052448994213	-908.1097850930435
-1708.4147820967175	80.9676743707269	8.2494030296091	-886.8843897443282
-1703.4958247537404	72.2721662845810	0.5558610625101	-873.4461633498863
-1675.4124492898522	68.6545453851873	0.0153422373941	-867.0150121468319
-1674.2106406939793	72.6871934756271	1.9327285209571	-870.2152455109649
-1806.2502630055264	92.9719916548719	26.3182313821592	-892.8918591608832
-2002.3637893633588	125.3629953101868	78.4004066467770	-932.0385613487435
-2169.0017305614624	151.8193068288930	136.0695166670700	-976.1435599498224
-2297.2172018548490	159.6324395695256	182.3129871264681	-1012.9279509696902
-2398.9905236948160	163.3727983680723	211.4990367292209	-1037.4326512137234
-2462.1914937724464	166.2107188952826	229.9573218771603	-1053.8228814390757
-2464.0329556504430	168.2339272777947	239.9726557699031	-1063.5144547837320
-2428.7041102295050	169.3995439290457	236.8727370348855	-1063.1722048726324
-2341.9740488498270	169.0549336737315	206.1560042090421	-1041.8126632943945
-2181.9993593692010	160.4306293047225	153.2921616187288	-1002.8060081965933
-1963.0333737174717	131.5659799058414	94.1002361893935	-957.7812621332720
-1786.3863928778637	101.7741086213718	43.6734490005313	-917.9606816721774
-1723.9529280606423	84.4759326548496	13.6298076665172	-892.4284449134403
-1706.8632491663990	74.6277898106324	1.6247036009674	-877.1098109614624
-1675.5434483937559	69.0715395297455	0.0216364886327	-868.1298813974715
-1662.5517204465532	70.1612317754306	0.4099131119148	-867.7726826396802
-1760.2467608746003	84.5782142374771	14.5959752316445	-883.2616547658031
-1942.6533749882430	114.5750420779040	60.3606892062055	-918.5523412886073
-2111.6681828103283	145.6293041264181	118.2693741642683	-962.3835399608064
-2258.2239220409300	158.1965635057167	169.6591817926385	-1002.7308705724322
-2377.3890468345935	162.2693374478027	203.8283114228620	-1030.9983528850498
-2449.3248640686110	165.4144961135979	224.9931246034055	-1049.4468032654288
-2460.3413772989960	167.6698050105339	237.9254505545438	-1061.4271237167268
-2441.4897014486430	169.1292845164876	240.0237965612169	-1064.9566250987798
-2386.4389999436140	169.4259011061074	219.2079209337140	-1051.1674941977851
-2241.2687827669124	165.2040320878067	171.2181891463028	-1016.2583966563220
-2022.8846219640518	142.1344211261774	112.6316920079818	-972.0707860077365
-1829.9131071463949	110.0113165392061	57.7438542537515	-929.2557155198712
-1744.3549566692063	88.6643634634451	20.8150888460980	-898.8651035863285
-1713.8530151668804	77.3126813546039	3.8261179716728	-881.2632299975430
-1675.6079644689516	70.1927030316237	0.0908732522575	-870.1393211053993
-1658.5009763838023	68.9995490312039	0.0377655074317	-866.8446739726870
-1724.6020227196243	77.9889199720526	6.7285545740789	-875.9453744823187
-1885.9382374213026	104.1820531108442	43.5715608086062	-906.0527451101236
-2051.7390432046705	137.2532292906319	99.9369740411012	-948.4146295088088
-2212.6901284086857	156.1552591508936	155.0521916213264	-991.0278905663359
-2351.6542138641134	161.0820843079190	194.7815054394609	-1023.2548502987444
-2434.2894714223708	164.5407753635377	219.2043804173923	-1044.2587666820010
-2453.6049549108690	167.0675238451390	234.8042887215958	-1058.2670162042398
-2447.2906407464316	168.7956892008411	240.9223009255291	-1064.8913222421790
-2421.4908983100530	169.5289694701397	229.3507134140388	-1058.1509659470280
-2298.2006786108827	167.8118190541052	188.3291111384763	-1028.8496528684680
-2085.0246173172727	151.7890157448072	131.5821089246403	-986.4393814133861
-1880.6841111998688	119.5486807285167	73.8197653078753	-941.9476797518347
-1771.2829436401062	93.9987413881709	30.1687395773816	-906.8206437612347
-1724.7904568660801	80.3614592983078	7.4641951875919	-885.9304172909757
-1676.5045018797516	71.8150462883766	0.4307628191427	-872.7714982952474
-1658.0060908801663	68.4790931319109	0.0157356280965	-866.6904648173409
-1700.5540490810930	73.1915203561211	2.3383143351453	-870.6829870561345
-1832.3289194499160	94.3500392854260	28.3426199367785	-894.3942182534001
-1990.2154910821307	126.9463928874007	81.1706639731722	-934.0342323820868
-2160.9812809206583	152.5506201446796	138.6969731684891	-978.0967447873048
-2320.4524303021944	159.8472308930434	184.2276196751141	-1014.5168560167378
-2416.6600604844166	163.5631994680404	212.6465574081608	-1038.5156558174676
-2443.8972525474130	166.3739760367842	230.6528366390272	-1054.4845646005350
-2448.0459508950653	168.3499775350067	240.2539301221287	-1063.9184670351108
-2445.3791553234046	169.4518648924666	236.1134929792276	-1062.6643374758169
-2350.6105483306105	168.9978920218816	203.9766197176718	-1040.2552295035396
-2147.2554859227520	159.5427464893754	150.4691899382102	-1000.7501483857808
-1936.7497607171251	129.9987113474263	91.3697113239421	-955.6459374005718
-1806.0555346078318	100.6710410918046	41.7540957634563	-916.3383384154246
-1740.2381229684500	83.9834074954280	12.8178492567360	-891.5783276055248
-1679.4026111844314	74.2347924989214	1.4114858402593	-876.4937611214829
-1658.0363819642523	68.9936481706677	0.0145554559893	-867.8667030175569
-1688.1075606474350	70.5601299476778	0.5495668112715	-868.0976233598738
-1785.8155829686620	85.8394248294145	16.2415285398398	-884.6019368889257
-1929.8595225643542	116.3051743871181	63.2344082873354	-920.5802703595484
-2104.3668513735356	146.8098696243607	121.1588288734947	-964.4905405629326
-2283.1188658617575	158.4947536581461	171.8562688656174	-1004.3119078054318
-2396.0810060597664	162.4884560690470	205.2012449742848	-1032.0668020328046
-2432.0247211485766	165.6104046833997	225.8644850092512	-1050.0856697661484
-2445.2937895409805	167.8432903102982	238.3310363687320	-1061.7552115625394
-2459.3480657754020	169.2268454106862	239.7346543949430	-1064.7729116407527
-2396.1077566275308	169.4443904691208	217.4856564385482	-1049.9117910756815
-2207.9977641102987	164.7276359471841	168.7118969812270	-1014.4185083411345
-1996.4861388786005	140.6068850287062	109.8335039417152	-969.8725187626502
-1848.3709989036317	108.6903105605019	55.4814643241720	-927.3402961898203
-1759.6979808447336	88.0443797164416	19.6785831068257	-897.8182909272064
-1685.6665713389598	76.9767256947429	3.4937028281334	-880.6298709666574
-1658.1146667140322	69.9641430335215	0.0896930801503	-869.5988022802833
-1683.3471397575306	69.1927038660888	0.0629425123861	-866.9068297036682
-1748.3226952937478	78.9865587933730	7.7454695398175	-876.9831391552851
-1871.9315614618731	105.8036095861923	46.1226995137572	-907.9300055420405
-2043.7846832018713	138.6336372654005	102.7162793536519	-950.3918111791385
-2238.3124516382754	156.5490432440094	157.4955412740161	-992.8957096213948
-2370.8111608995387	161.3023831012706	196.3110084904442	-1024.5384841607195
-2417.2052999979614	164.7327500263154	220.1552057451255	-1045.1116377248330
-2438.8327406445433	167.2339281122599	235.2924865832909	-1058.7776373359725
-2465.5557710594860	168.8869558438010	240.9730483261404	-1065.1505667150695
-2432.0168533345280	169.5702754938931	228.1134996549487	-1057.3429414442708
-2265.6027514460980	167.5797185396813	185.8916623463228	-1027.0506771863313
-2058.0281803641530	150.4377186820172	128.6851797920680	-984.1966610189272
-1897.5586053798918	118.0675647339302	71.2446297698772	-939.9099159133333
-1785.2821451761893	93.1439033918266	28.5818014838459	-905.4547912424553
-1695.8888287411721	79.9845910053958	6.8524726453391	-885.2872234925298
-1658.6366961761348	71.7178787848805	0.3725409951855	-872.4257078678258
-1682.5190523289505	68.7446318560400	0.0188827537158	-866.8352325958291
-1722.6185467980560	73.9948241704493	2.8516892017948	-871.4701618516636
-1816.7589088390957	95.8925242295890	30.6655920345297	-896.1385126279012
-1983.0270627769307	128.7493024765614	84.2461924846402	-936.3843484383045
-2188.2766948076123	153.3220593121123	141.5883948312276	-980.4342723410455
-2340.9339238326460	160.0982141611831	186.1442191772722	-1016.0915989984989
-2400.5573988625283	163.7834982613919	213.8420717527952	-1039.5538138811366
-2430.0353443664720	166.5498216807630	231.3393034147386	-1055.0250834256508
-2467.0888146267907	168.4668145736235	240.4226947334641	-1064.0372710272397
-2457.8732440320546	169.5175611397697	235.3849333983580	-1062.1891215073015
-2319.4976710674370	168.9329825559834	201.7382266209396	-1038.6254118234410
-2120.6591273139866	158.5533688728057	147.6064857967479	-998.5227702287161
-1952.9991570710129	128.4526858869416	88.6714444960886	-953.5385434077434
-1818.6286948476663	99.6273755583019	39.8909973968264	-914.7687095127950
-1710.2656853515728	83.4511498750627	11.9134440318875	-890.6668413480331
-1661.0733581868838	73.9865629656986	1.2466551359481	-875.9563894219862
-1682.6012709857546	69.1333018700244	0.0165224095014	-867.8726038780931
-1708.1830749729960	71.1108769310566	0.7305265343817	-868.6180792591665
-1768.0563530989111	87.2245534926121	17.9873964771505	-886.1939890615927
-1921.3292385732218	117.9479739603965	65.8693392121004	-922.6188209794545
-2131.7082919726713	147.8846130233542	123.8747982829569	-966.5979345557611
-2303.9681796989650	158.7764214010741	173.8177149078506	-1005.8870441778951
-2379.9665427168060	162.7130821601250	206.2693007313371	-1032.9590121458784
-2417.9118296994957	165.7929379693196	226.4667661746462	-1050.6879509315430
-2464.1824441173603	167.9601273489150	238.6241124420300	-1062.0970680829369
-2472.6580468008570	169.3067037232761	239.2826484778700	-1064.5081596980285
-2366.2167508860530	169.4392763899894	215.4372710510815	-1048.4975515005053
-2181.1559297032272	164.0797214603092	165.7933313600220	-1012.1856227142362
-2011.2925781360361	138.9440225296047	106.7819722630945	-967.4897512781323
-1859.0708326185743	107.3523887815939	53.1207267189892	-925.5055219537642
-1728.4297142541068	87.3524054708964	18.3870814308025	-896.6707702482664
-1666.6016777278992	76.4924617400720	3.0448440366797	-879.8002099752675
-1682.9742053716427	69.8598944973820	0.0680565915175	-869.3867646916823
-1702.5170686861359	69.3516337098639	0.0928402057696	-866.9862946255558
-1728.2196436190180	79.9015855671865	8.7997566222854	-877.9288504038870
-1862.3784616444661	107.3276051673418	48.5333977381465	-909.7132455960804
-2072.0372166677970	139.9562168069144	105.3724533763472	-952.4134459988411
-2260.5319452919890	156.9204040670876	159.6694182955525	-994.6270221027161
-2355.5314726271000	161.5250422388365	197.6139184968374	-1025.6643683510263
-2403.5707716430147	164.9223643448787	220.8294774090621	-1045.7103783739065
-2457.9873273357543	167.3617800905442	235.6162471313771	-1059.0872358187720
-2479.6529268804700	168.9707480634150	240.6284380708263	-1064.9137455122168
-2404.7560578293870	169.5938789360379	226.4624388769196	-1056.1611957742210
-2239.8085164795540	167.3043450479919	183.1874946579331	-1025.0314027108434
-2072.9113308085600	149.0734397260475	125.7717282499943	-981.9893457876855
-1908.0310592688393	116.6088720093813	68.7961660380561	-937.8871009215237
-1753.5528246823340	92.3590889405118	27.1793636297421	-904.2561297722018
-1676.1937232248451	79.5400595116686	6.2816627361372	-884.5106702459657
-1683.5753063649304	71.3720883574591	0.2950430268101	-871.8682732425061
-1701.4922859063490	68.6679206690694	0.0232100514424	-866.6542728727189
-1700.2346158307332	74.6313303269542	3.4118775620315	-872.2290125166192
-1807.3159584183640	97.4503514111461	32.9106727732030	-897.9740736453621
-2012.0907678712330	130.3932822219470	87.0805724955288	-938.5240004687310
-2211.6979970571992	153.9802019572499	144.0675430378369	-982.3524454060132
-2326.6192229532270	160.3448701315963	187.7158150334138	-1017.3921486606775
-2387.3434051684620	164.0096979152796	214.6670120557561	-1040.2473616894913
-2449.5483099875814	166.7099316966452	231.9923319807448	-1055.7284660015662
-2482.0368745370950	168.5907326448837	240.5194688462578	-1064.2260985643982
-2432.9763332577150	169.5848309498824	234.3145172970912	-1061.4833785871720
-2294.7305792248940	168.8645325737634	199.2866157634992	-1036.7961450572186
-2134.8436158709064	157.5793334936301	144.7606974554893	-996.3610883189546
-1962.2359707636797	126.9448193245911	86.0369069620260	-951.4386238382605
-1785.6306893385279	98.6049531227294	38.0459950025076	-913.2879869089111
-1690.4517758431168	82.9688528739039	11.0936178080580	-889.7809254861982
-1685.7767207356355	73.7170903345454	1.0668755849452	-875.4760593743395
-1701.4147879379734	69.1329084793220	0.0173091909062	-867.7490791975354
-1683.9415531088770	71.5738977877972	0.9468914207091	-869.0681182227274
-1757.5890132890956	88.5738836018900	19.7600149822253	-887.7293929731122
-1951.4830293039117	119.8299550807422	68.8945137136595	-924.8642951088303
-2157.0127555147120	148.9805995202779	126.8031986717223	-968.9075313696303
-2291.3588275145084	159.0470742043345	175.9416313101806	-1007.7587971399780
-2367.8981027481673	162.9597381305382	207.5407394815373	-1034.1415445973330
-2438.2760928006282	165.9668166597863	227.3644837575535	-1051.5018762948366
-2480.1934457055860	168.0942735784380	239.1217516805830	-1062.6171305915273
-2450.4377663657388	169.4030844453674	239.0064882047758	-1064.4542651717980
